3	0.106177606177606
4	0.105855855855856
5	0.11981981981982
6	0.148230373230373
7	0.183783783783784
8	0.214060489060489
9	0.2496138996139
10	0.315604890604891
11	0.311711711711712
12	0.375836550836551
13	0.409684684684685
14	0.411229086229086
15	0.410907335907336
16	0.40530888030888
17	0.451576576576577
18	0.49954954954955
19	0.492084942084942
20	0.531209781209781
21	0.586486486486486
22	0.600450450450451
23	0.609298584298584
24	0.573101673101673
25	0.567503217503218
26	0.5994851994852
27	0.627895752895753
28	0.656467181467182
29	0.695752895752896
30	0.726029601029601
31	0.716859716859717
32	0.752413127413127
33	0.761100386100386
34	0.778796653796654
35	0.825225225225225
36	0.765894465894466
37	0.71930501930502
38	0.699420849420849
39	0.70518018018018
40	0.703314028314028
41	0.726769626769627
42	0.64942084942085
43	0.635135135135135
44	0.613706563706564
45	0.593983268983269
46	0.545688545688546
47	0.551126126126126
48	0.500965250965251
49	0.441634491634492
50	0.529375804375805
51	0.538384813384813
52	0.581241956241956
53	0.538223938223938
54	0.540250965250965
55	0.549099099099099
56	0.536679536679537
57	0.509813384813385
58	0.513545688545689
59	0.554697554697555
60	0.635456885456886
61	0.714189189189189
62	0.719465894465895
63	0.717760617760618
64	0.721332046332046
65	0.66930501930502
66	0.662162162162163
67	0.663867438867439
68	0.62442084942085
69	0.656724581724582
70	0.69430501930502
71	0.733751608751609
72	0.780341055341055
73	0.82506435006435
74	0.733333333333334
75	0.850225225225225
76	0.905984555984556
77	0.868243243243243
78	0.952734877734878
79	0.959877734877735
80	0.954279279279279
81	0.909234234234234
82	0.928796653796654
83	0.957528957528958
84	0.928796653796654
85	0.975546975546976
86	0.955984555984556
87	0.950546975546976
88	0.972297297297298
89	0.950868725868726
90	0.907850707850708
91	0.956306306306306
92	0.977734877734878
93	0.945431145431146
94	0.956145431145431
95	0.955823680823681
96	0.939671814671815
97	0.900225225225225
98	0.86994851994852
99	0.857368082368082
100	0.860617760617761
101	0.883912483912484
102	0.892599742599742
103	0.926769626769627
104	0.926608751608752
105	0.937323037323037
106	0.889028314028314
107	0.863867438867439
108	0.840733590733591
109	0.826608751608752
110	0.814189189189189
111	0.808751608751609
112	0.780019305019305
113	0.798037323037323
114	0.746010296010296
115	0.760456885456886
116	0.7747425997426
117	0.825225225225225
118	0.845109395109395
119	0.873680823680824
120	0.93471685971686
121	0.934555984555985
122	0.941698841698842
123	0.94527027027027
124	0.946975546975547
125	1.01158301158301
126	1.06702059202059
127	1.02773487773488
128	1.02416344916345
129	1.05289575289575
130	1.07091377091377
131	1.07651222651223
132	1.09453024453024
133	1.07837837837838
134	1.09266409266409
135	1.1266731016731
136	1.11425353925354
137	1.11953024453024
138	1.13584298584299
139	1.10370012870013
140	1.12545045045045
141	1.13632561132561
142	1.14890604890605
143	1.15263835263835
144	1.16351351351351
145	1.19208494208494
146	1.21351351351351
147	1.20620978120978
148	1.20279922779923
149	1.24395109395109
150	1.28169240669241
151	1.28696911196911
152	1.29240669240669
153	1.28526383526384
154	1.29240669240669
155	1.24411196911197
156	1.23712998712999
157	1.25498712998713
158	1.26756756756757
159	1.26602316602317
160	1.26943371943372
161	1.25328185328185
162	1.21212998712999
163	1.21026383526384
164	1.2014157014157
165	1.21026383526384
166	1.20839768339768
167	1.19581724581725
168	1.21367438867439
169	1.25312097812098
170	1.22812097812098
171	1.17779922779923
172	1.16537966537967
173	1.16351351351351
174	1.18680823680824
175	1.17934362934363
176	1.19533462033462
177	1.16116473616474
178	1.10540540540541
179	1.09282496782497
180	1.08738738738739
181	1.08568211068211
182	1.08754826254826
183	1.119851994852
184	1.10711068211068
185	1.06409266409266
186	1.06036036036036
187	1.04250321750322
188	1.01920849420849
189	0.974163449163449
190	0.92027027027027
191	0.961422136422137
192	0.957689832689833
193	0.896975546975547
194	0.877091377091377
195	0.823037323037323
196	0.783751608751609
197	0.783751608751609
198	0.806885456885457
199	0.837483912483913
200	0.801447876447877
201	0.80518018018018
202	0.789028314028314
203	0.812323037323037
204	0.781885456885457
205	0.756885456885457
206	0.755180180180181
207	0.760617760617761
208	0.769465894465895
209	0.778635778635779
210	0.730019305019305
211	0.746332046332047
212	0.708912483912484
213	0.759073359073359
214	0.780823680823681
215	0.751930501930502
216	0.726769626769627
217	0.710456885456885
218	0.671010296010296
219	0.627831402831403
220	0.622393822393823
221	0.602670527670528
222	0.618983268983269
223	0.616956241956242
224	0.608108108108108
225	0.663706563706564
226	0.667438867438868
227	0.620688545688546
228	0.62953667953668
229	0.640250965250965
230	0.661840411840412
231	0.685296010296011
232	0.692438867438868
233	0.692438867438868
234	0.646171171171171
235	0.638706563706564
236	0.625965250965251
237	0.606241956241957
238	0.624259974259974
239	0.570366795366795
240	0.537902187902188
241	0.554054054054054
242	0.557464607464607
243	0.566634491634492
244	0.590090090090091
245	0.572232947232948
246	0.618983268983269
247	0.624259974259974
248	0.627670527670528
249	0.675965250965251
250	0.715250965250965
251	0.731563706563707
252	0.738706563706564
253	0.737162162162162
254	0.730019305019305
255	0.766216216216217
256	0.76994851994852
257	0.800546975546976
258	0.777252252252252
259	0.773841698841699
260	0.744787644787645
261	0.732368082368083
262	0.762805662805663
263	0.755662805662806
264	0.755823680823681
265	0.752252252252252
266	0.71451093951094
267	0.730662805662806
268	0.712644787644788
269	0.696492921492922
270	0.707046332046332
271	0.698359073359074
272	0.71994851994852
273	0.741377091377092
274	0.680180180180181
275	0.683751608751609
276	0.691055341055341
277	0.698037323037323
278	0.710778635778636
279	0.719787644787645
280	0.65518018018018
281	0.651447876447877
282	0.628314028314028
283	0.603314028314028
284	0.55485842985843
285	0.520849420849421
286	0.495849420849421
287	0.470688545688546
288	0.429375804375805
289	0.377348777348777
290	0.375482625482626
291	0.328893178893179
292	0.354054054054054
293	0.377348777348777
294	0.373777348777349
295	0.395366795366795
296	0.422715572715573
297	0.413867438867439
298	0.361840411840412
299	0.363706563706564
300	0.320527670527671
301	0.349259974259974
302	0.35485842985843
303	0.335135135135135
304	0.348037323037323
305	0.378314028314028
306	0.360456885456885
307	0.35518018018018
308	0.340894465894466
309	0.323037323037323
310	0.355501930501931
311	0.326930501930502
312	0.30006435006435
313	0.27506435006435
314	0.276769626769627
315	0.321332046332046
316	0.366216216216216
317	0.38951093951094
318	0.412966537966538
319	0.416537966537967
320	0.439993564993565
321	0.420431145431146
322	0.420431145431146
323	0.458333333333334
324	0.506949806949807
325	0.549967824967825
326	0.587709137709138
327	0.609137709137709
328	0.630566280566281
329	0.601994851994852
330	0.612709137709137
331	0.6001287001287
332	0.612548262548263
333	0.619530244530244
334	0.66969111969112
335	0.660682110682111
336	0.693146718146718
337	0.687709137709138
338	0.682432432432432
339	0.671718146718147
340	0.707432432432432
341	0.682432432432432
342	0.725450450450451
343	0.741602316602317
344	0.78478120978121
345	0.799066924066924
346	0.797361647361647
347	0.87454954954955
348	0.915862290862291
349	0.876415701415701
350	0.878120978120978
351	0.842406692406692
352	0.813674388674389
353	0.831531531531531
354	0.834942084942085
355	0.852799227799228
356	0.840057915057915
357	0.840057915057915
358	0.831048906048906
359	0.836325611325612
360	0.879182754182755
361	0.943629343629344
362	0.968468468468469
363	0.97033462033462
364	0.928861003861004
365	0.930566280566281
366	0.946718146718147
367	0.982432432432433
368	0.998423423423424
369	0.973262548262549
370	0.982271557271557
371	1.00028957528958
372	1.00727155727156
373	0.982271557271557
374	0.991119691119691
375	1.02342342342342
376	0.985842985842986
377	0.998584298584299
378	0.99501287001287
379	1.01287001287001
380	1.02870012870013
381	0.989092664092664
382	0.967503217503217
383	0.926190476190476
384	0.920752895752896
385	0.981788931788932
386	0.994369369369369
387	1.00508365508366
388	0.996074646074646
389	0.931467181467181
390	0.924324324324324
391	0.901029601029601
392	0.908333333333334
393	0.936904761904762
394	0.97992277992278
395	0.996074646074646
396	0.962065637065637
397	0.906306306306306
398	0.840154440154441
399	0.872297297297298
400	0.884877734877735
401	0.915315315315315
402	0.909877734877735
403	0.847136422136422
404	0.840154440154441
405	0.876190476190477
406	0.856628056628057
407	0.862065637065637
408	0.872940797940798
409	0.858494208494209
410	0.876512226512227
411	0.860360360360361
412	0.922940797940798
413	0.935360360360361
414	0.967503217503217
415	0.956788931788932
416	0.91936936936937
417	0.917824967824968
418	0.937709137709138
419	0.955727155727156
420	0.961164736164736
421	0.955888030888031
422	0.945173745173745
423	0.955888030888031
424	1.0007722007722
425	1.02966537966538
426	1.02779922779923
427	1.06554054054054
428	1.06570141570142
429	1.09971042471042
430	1.07454954954955
431	1.05125482625483
432	1.03339768339768
433	1.01927284427284
434	1.02454954954955
435	1.00653153153153
436	1.046138996139
437	0.988835263835264
438	1.00328185328185
439	0.99443371943372
440	0.987129987129987
441	0.978281853281854
442	0.958558558558559
443	0.953120978120978
444	0.938674388674389
445	0.909942084942085
446	0.902638352638353
447	0.924066924066924
448	0.882915057915058
449	0.861325611325612
450	0.798584298584299
451	0.717664092664093
452	0.748101673101673
453	0.780405405405406
454	0.778539253539254
455	0.767824967824968
456	0.74980694980695
457	0.744208494208494
458	0.75492277992278
459	0.706628056628057
460	0.675868725868726
461	0.679279279279279
462	0.648841698841699
463	0.59494851994852
464	0.610939510939511
465	0.571492921492921
466	0.523198198198198
467	0.526769626769627
468	0.537323037323038
469	0.5247425997426
470	0.539189189189189
471	0.519465894465895
472	0.496171171171171
473	0.498037323037323
474	0.48018018018018
475	0.535617760617761
476	0.576769626769627
477	0.612483912483913
478	0.632046332046332
479	0.651769626769627
480	0.646332046332046
481	0.735617760617761
482	0.764350064350065
483	0.755341055341056
484	0.773198198198198
485	0.787644787644788
486	0.796814671814672
487	0.884877734877735
488	0.836261261261261
489	0.786100386100386
490	0.784234234234235
491	0.796653796653797
492	0.795109395109395
493	0.805823680823681
494	0.76994851994852
495	0.785939510939511
496	0.798680823680824
497	0.800707850707851
498	0.863288288288289
499	0.897458172458172
500	0.881467181467182
501	0.86003861003861
502	0.888770913770914
503	0.901351351351352
504	0.885360360360361
505	0.930244530244531
506	0.948101673101673
507	0.967985842985843
508	1.00199485199485
509	1.02342342342342
510	1.00540540540541
511	1.02870012870013
512	1.01084298584299
513	1.01441441441441
514	1.00727155727156
515	0.985842985842986
516	0.982432432432433
517	0.972039897039897
518	0.970173745173745
519	0.986325611325611
520	0.993468468468469
521	0.993468468468469
522	1.01676319176319
523	0.998745173745174
524	1.03664736164736
525	1.06895109395109
526	1.06537966537967
527	1.09954954954955
528	1.11196911196911
529	1.05994208494209
530	1.10482625482625
531	1.10482625482625
532	1.11212998712999
533	1.08494208494208
534	1.06010296010296
535	1.01708494208494
536	1.00247747747748
537	1.0507722007722
538	1.08120978120978
539	1.09192406692407
540	1.11692406692407
541	1.11319176319176
542	1.03787001287001
543	1.003861003861
544	0.9501287001287
545	0.883815958815959
546	0.876512226512227
547	0.828217503217503
548	0.803378378378379
549	0.740637065637066
550	0.747940797940798
551	0.74436936936937
552	0.726512226512227
553	0.656467181467182
554	0.618886743886744
555	0.549002574002574
556	0.53471685971686
557	0.529440154440154
558	0.507850707850708
559	0.518725868725869
560	0.531145431145431
561	0.53471685971686
562	0.529279279279279
563	0.504118404118404
564	0.482528957528958
565	0.504118404118404
566	0.498680823680824
567	0.509555984555985
568	0.496975546975547
569	0.520592020592021
570	0.502413127413127
571	0.53471685971686
572	0.520431145431145
573	0.50971685971686
574	0.48471685971686
575	0.4253861003861
576	0.395109395109395
577	0.348519948519949
578	0.432850707850708
579	0.447136422136422
580	0.455984555984556
581	0.527574002574003
582	0.545431145431146
583	0.588288288288288
584	0.568404118404118
585	0.630984555984556
586	0.663127413127413
587	0.700546975546976
588	0.732689832689833
589	0.746975546975547
590	0.743404118404118
591	0.777574002574003
592	0.750546975546976
593	0.786261261261261
594	0.780984555984556
595	0.748680823680824
596	0.754118404118404
597	0.730662805662806
598	0.736100386100386
599	0.712805662805663
600	0.721814671814672
601	0.721653796653797
602	0.696492921492922
603	0.717921492921493
604	0.732207207207207
605	0.71061776061776
606	0.732207207207207
607	0.708912483912484
608	0.746492921492922
609	0.734073359073359
610	0.716055341055341
611	0.76451093951094
612	0.785778635778636
613	0.800225225225225
614	0.758912483912484
615	0.76962676962677
616	0.78951093951094
617	0.77506435006435
618	0.809073359073359
619	0.773359073359074
620	0.793082368082368
621	0.776930501930502
622	0.805341055341055
623	0.778474903474904
624	0.796492921492922
625	0.84494851994852
626	0.84494851994852
627	0.877252252252252
628	0.873841698841699
629	0.839671814671815
630	0.839671814671815
631	0.846653796653797
632	0.765733590733591
633	0.798037323037323
634	0.807046332046332
635	0.873359073359074
636	0.894787644787645
637	0.89494851994852
638	0.903796653796654
639	0.905501930501931
640	0.846332046332046
641	0.906885456885457
642	0.901769626769627
643	0.881885456885457
644	0.882046332046332
645	0.791956241956242
646	0.806402831402832
647	0.802992277992278
648	0.838867438867439
649	0.856724581724582
650	0.882046332046332
651	0.8747425997426
652	0.876447876447877
653	0.8747425997426
654	0.839028314028314
655	0.84430501930502
656	0.820849420849421
657	0.797715572715573
658	0.778153153153153
659	0.776287001287001
660	0.73497425997426
661	0.724259974259974
662	0.75997425997426
663	0.716956241956242
664	0.75997425997426
665	0.736840411840412
666	0.736840411840412
667	0.749259974259974
668	0.787001287001287
669	0.774259974259974
670	0.793983268983269
671	0.758268983268983
672	0.731402831402831
673	0.73497425997426
674	0.758429858429859
675	0.747876447876448
676	0.817599742599743
677	0.841055341055341
678	0.839028314028314
679	0.867921492921493
680	0.853474903474904
681	0.961422136422137
682	0.98471685971686
683	0.966698841698842
684	0.895109395109395
685	0.897136422136422
686	0.886261261261261
687	0.925707850707851
688	0.913127413127413
689	0.888127413127413
690	0.889993564993565
691	0.870431145431145
692	0.895752895752896
693	0.886904761904762
694	0.849324324324325
695	0.8494851994852
696	0.854761904761905
697	0.819047619047619
698	0.783333333333333
699	0.831788931788932
700	0.815637065637066
701	0.837226512226512
702	0.847940797940798
703	0.857271557271557
704	0.852155727155728
705	0.857754182754183
706	0.834298584298585
707	0.878861003861004
708	0.911003861003861
709	0.921718146718147
710	0.903861003861004
711	0.932432432432433
712	0.871557271557272
713	0.873423423423423
714	0.907432432432432
715	0.910842985842986
716	0.905566280566281
717	0.891119691119691
718	0.881949806949807
719	0.874646074646075
720	0.905083655083655
721	0.8994851994852
722	0.903056628056628
723	0.876029601029601
724	0.879761904761905
725	0.8994851994852
726	0.881306306306307
727	0.901029601029601
728	0.913610038610039
729	0.902734877734878
730	0.942181467181468
731	0.940315315315315
732	0.936583011583012
733	0.94527027027027
734	0.947136422136422
735	0.932689832689833
736	0.939671814671815
737	0.916055341055341
738	0.901769626769627
739	0.910456885456885
740	0.930019305019305
741	0.940572715572716
742	0.919144144144144
743	0.852992277992278
744	0.82442084942085
745	0.824581724581725
746	0.812001287001287
747	0.781402831402832
748	0.772554697554698
749	0.747554697554698
750	0.736840411840412
751	0.742277992277992
752	0.752992277992278
753	0.711679536679537
754	0.701126126126126
755	0.731563706563707
756	0.665250965250966
757	0.668661518661519
758	0.661518661518662
759	0.681563706563707
760	0.699420849420849
761	0.688706563706564
762	0.697876447876448
763	0.674581724581725
764	0.643983268983269
765	0.67442084942085
766	0.595527670527671
767	0.595688545688546
768	0.624581724581725
769	0.632046332046332
770	0.646332046332046
771	0.617599742599742
772	0.60518018018018
773	0.65006435006435
774	0.621332046332046
775	0.662323037323038
776	0.678474903474903
777	0.671332046332046
778	0.692921492921493
779	0.701769626769627
780	0.698037323037323
781	0.678314028314028
782	0.653153153153153
783	0.635135135135135
784	0.631563706563707
785	0.618822393822394
786	0.57953667953668
787	0.568983268983269
788	0.54942084942085
789	0.605019305019305
790	0.612162162162162
791	0.592599742599743
792	0.60518018018018
793	0.592921492921493
794	0.612644787644788
795	0.590894465894466
796	0.572876447876448
797	0.587323037323037
798	0.601769626769627
799	0.580019305019305
800	0.578314028314028
801	0.537162162162163
802	0.551608751608752
803	0.557046332046332
804	0.47442084942085
805	0.47442084942085
806	0.445849420849421
807	0.426287001287001
808	0.374259974259974
809	0.327831402831403
810	0.318822393822394
811	0.270688545688546
812	0.236679536679537
813	0.168500643500644
814	0.164929214929215
815	0.152348777348778
816	0.154375804375805
817	0.170527670527671
818	0.132947232947233
819	0.122393822393823
820	0.149259974259974
821	0.136840411840412
822	0.115250965250965
823	0.131241956241956
824	0.10965250965251
825	0.100804375804376
826	0.0793758043758047
827	0.0596525096525097
828	0.0955276705276707
829	0.0831081081081083
830	0.0473938223938224
831	0.0295366795366797
832	0.0189832689832692
833	-0.0349099099099095
834	-0.0170527670527667
835	-0.017213642213642
836	-0.0316602316602315
837	-0.0369369369369368
838	-0.0459459459459458
839	-0.0569819819819819
840	0.0132239382239383
841	0.0453667953667954
842	0.0667953667953669
843	0.100804375804376
844	0.13497425997426
845	0.120527670527671
846	0.111518661518662
847	0.131402831402832
848	0.107947232947233
849	0.170849420849421
850	0.161840411840412
851	0.170849420849421
852	0.168983268983269
853	0.116795366795367
854	0.131081081081081
855	0.147393822393823
856	0.089929214929215
857	0.0756435006435008
858	0.0919562419562421
859	0.057786357786358
860	0.0703667953667955
861	0.0506435006435008
862	0.0470720720720723
863	0.0633848133848135
864	0.0348133848133849
865	0.0256435006435008
866	-0.00138352638352623
867	0.00234877734877736
868	-0.00122265122265108
869	0.0382239382239383
870	0.0275096525096525
871	0.0296975546975549
872	0.0531531531531533
873	0.0422779922779924
874	0.0296975546975549
875	0.02985842985843
876	0.00656370656370675
877	-0.0184362934362934
878	-0.0418918918918917
879	-0.0417310167310165
880	-0.0344272844272844
881	-0.036132561132561
882	-0.0342664092664092
883	-0.0937580437580436
884	-0.0864543114543114
885	-0.133043758043758
886	-0.0970077220077219
887	-0.12557915057915
888	-0.156016731016731
889	-0.121685971685972
890	-0.107239382239382
891	-0.119980694980695
892	-0.0803732303732304
893	-0.0856499356499355
894	-0.103828828828829
895	-0.107400257400257
896	-0.139543114543115
897	-0.153989703989704
898	-0.175740025740026
899	-0.213642213642213
900	-0.208365508365508
901	-0.188642213642213
902	-0.17979407979408
903	-0.187097812097812
904	-0.201544401544401
905	-0.226705276705276
906	-0.25543758043758
907	-0.25
908	-0.271589446589446
909	-0.278893178893179
910	-0.300482625482625
911	-0.338223938223938
912	-0.376126126126126
913	-0.406724581724582
914	-0.390572715572715
915	-0.439189189189189
916	-0.498680823680823
917	-0.496975546975547
918	-0.493404118404118
919	-0.451769626769627
920	-0.460939510939511
921	-0.437483912483912
922	-0.448198198198198
923	-0.462644787644787
924	-0.482528957528957
925	-0.480823680823681
926	-0.4503861003861
927	-0.453957528957529
928	-0.392921492921493
929	-0.423519948519948
930	-0.410778635778636
931	-0.389189189189189
932	-0.389510939510939
933	-0.389671814671814
934	-0.348359073359073
935	-0.303635778635779
936	-0.296332046332046
937	-0.287162162162162
938	-0.268983268983269
939	-0.224099099099099
940	-0.224259974259974
941	-0.179214929214929
942	-0.184813384813384
943	-0.175965250965251
944	-0.167117117117117
945	-0.122232947232947
946	-0.118661518661519
947	-0.102509652509652
948	-0.0413127413127412
949	-0.0107142857142857
950	0.0253217503217504
951	0.0323037323037325
952	0.113223938223938
953	0.15997425997426
954	0.129375804375805
955	0.109491634491635
956	0.14009009009009
957	0.132786357786358
958	0.138063063063063
959	0.120045045045045
960	0.16509009009009
961	0.168661518661519
962	0.168661518661519
963	0.132786357786358
964	0.111357786357787
965	0.156241956241956
966	0.186679536679537
967	0.190250965250965
968	0.228153153153153
969	0.224581724581725
970	0.228153153153153
971	0.190572715572716
972	0.190411840411841
973	0.174099099099099
974	0.138063063063063
975	0.125643500643501
976	0.13465250965251
977	0.0824646074646076
978	0.098777348777349
979	0.0861969111969114
980	0.0970720720720724
981	0.0935006435006436
982	0.0827863577863581
983	0.108108108108108
984	0.0919562419562421
985	0.0399292149292151
986	-0.0173745173745172
987	0.00965250965250974
988	0.00250965250965263
989	-0.00649935649935629
990	0.0314028314028315
991	0.0691441441441443
992	0.0477155727155728
993	0.0620012870012872
994	0.0693050193050195
995	0.0871621621621623
996	0.0511261261261263
997	0.0655727155727157
998	0.089028314028314
999	0.106885456885457
1000	0.097876447876448
1001	0.0817245817245819
1002	0.0762870012870014
1003	0.0385456885456886
1004	0.0314028314028315
1005	0.0567245817245818
1006	0.00096525096525113
1007	0.00267052767052778
1008	-0.0259009009009007
1009	-0.00617760617760599
1010	0.0441441441441442
1011	0.0261261261261263
1012	0.0405727155727158
1013	0.0800193050193052
1014	0.0691441441441443
1015	0.0925997425997426
1016	0.0585907335907339
1017	0.0244208494208495
1018	0.0512870012870015
1019	0.0296975546975549
1020	0.0240990990990992
1021	0.041956241956242
1022	0.0596525096525097
1023	0.0633848133848135
1024	0.0326254826254827
1025	0.0236164736164737
1026	0.0341698841698842
1027	0.0304375804375806
1028	0.0394465894465894
1029	0.0394465894465894
1030	0.0537323037323039
1031	0.0644465894465895
1032	0.0464285714285715
1033	0.0122586872586874
1034	0.00308880308880322
1035	0.00682110682110704
1036	-0.00389317889317864
1037	-0.0074646074646072
1038	-0.0450450450450448
1039	-0.0074646074646072
1040	-0.0200450450450447
1041	-0.0147683397683396
1042	0.00527670527670554
1043	-0.0108751608751607
1044	0.0105534105534109
1045	0.0250000000000001
1046	0.0124195624195624
1047	0.0232947232947237
1048	0.00186615186615213
1049	0.0146074646074646
1050	0.0202059202059204
1051	-0.0158301158301157
1052	-0.021106821106821
1053	-0.012097812097812
1054	0.041956241956242
1055	0.0740990990990993
1056	0.0832689832689835
1057	0.0834298584298584
1058	0.089028314028314
1059	0.0602960102960105
1060	0.0910553410553411
1061	0.0803410553410553
1062	0.0536357786357787
1063	0.0305019305019306
1064	0.0287966537966537
1065	0.0522522522522522
1066	0.0325289575289576
1067	0.00939510939510946
1068	0.0544401544401547
1069	0.0598777348777351
1070	0.0187258687258689
1071	0.034877734877735
1072	0.0420205920205922
1073	0.0472972972972976
1074	0.0796010296010298
1075	0.0275740025740028
1076	0.0275740025740028
1077	0.0437258687258689
1078	0.0760296010296011
1079	0.0707528957528959
1080	0.0581724581724583
1081	0.0185649935649937
1082	-0.0264800514800512
1083	-0.0606499356499355
1084	-0.107400257400257
1085	-0.118275418275418
1086	-0.172329472329472
1087	-0.130855855855856
1088	-0.121846846846847
1089	-0.128989703989704
1090	-0.175740025740026
1091	-0.256499356499356
1092	-0.258204633204633
1093	-0.303249678249678
1094	-0.346428571428571
1095	-0.342857142857143
1096	-0.366151866151866
1097	-0.362580437580438
1098	-0.369723294723294
1099	-0.367857142857143
1100	-0.416473616473616
1101	-0.452348777348777
1102	-0.441473616473616
1103	-0.428893178893179
1104	-0.502670527670527
1105	-0.493661518661519
1106	-0.468339768339768
1107	-0.522232947232947
1108	-0.565250965250965
1109	-0.575804375804376
1110	-0.584652509652509
1111	-0.548616473616473
1112	-0.553893178893179
1113	-0.578893178893179
1114	-0.600482625482625
1115	-0.587902187902188
1116	-0.589446589446589
1117	-0.575
1118	-0.538963963963964
1119	-0.512097812097812
1120	-0.470785070785071
1121	-0.519240669240669
1122	-0.465186615186615
1123	-0.470624195624195
1124	-0.488642213642213
1125	-0.508365508365508
1126	-0.510070785070785
1127	-0.461454311454311
1128	-0.493918918918919
1129	-0.470624195624195
1130	-0.456177606177606
1131	-0.427445302445302
1132	-0.403989703989704
1133	-0.4002574002574
1134	-0.41470398970399
1135	-0.445302445302445
1136	-0.402123552123552
1137	-0.385971685971686
1138	-0.371685971685972
1139	-0.371685971685972
1140	-0.299774774774775
1141	-0.303346203346203
1142	-0.341248391248391
1143	-0.325096525096525
1144	-0.282078507078507
1145	-0.27493564993565
1146	-0.271525096525097
1147	-0.298552123552123
1148	-0.28970398970399
1149	-0.307882882882883
1150	-0.335070785070785
1151	-0.318758043758044
1152	-0.281016731016731
1153	-0.304311454311454
1154	-0.304311454311454
1155	-0.331338481338481
1156	-0.33490990990991
1157	-0.300740025740026
1158	-0.263159588159588
1159	-0.256177606177606
1160	-0.256338481338481
1161	-0.202606177606177
1162	-0.157882882882883
1163	-0.156338481338481
1164	-0.11502574002574
1165	-0.059266409266409
1166	-0.0376769626769625
1167	-0.0735521235521234
1168	-0.0917310167310166
1169	-0.100740025740026
1170	-0.099034749034749
1171	-0.0721685971685971
1172	-0.102767052767052
1173	-0.115508365508365
1174	-0.151705276705277
1175	-0.114124839124839
1176	-0.103571428571428
1177	-0.116312741312741
1178	-0.10543758043758
1179	-0.091151866151866
1180	-0.0712676962676961
1181	-0.0605534105534105
1182	-0.05511583011583
1183	-0.0138030888030887
1184	0.00405405405405423
1185	0.000482625482625565
1186	0.0203667953667953
1187	0.0292149292149294
1188	-0.0249999999999999
1189	-0.0215894465894463
1190	-0.043178893178893
1191	-0.0413127413127412
1192	-0.0288931788931788
1193	-0.0236164736164735
1194	-0.0414736164736162
1195	-0.0646074646074645
1196	-0.0430180180180177
1197	-0.0375804375804375
1198	-0.0933397683397683
1199	-0.0518661518661517
1200	-0.0375804375804375
1201	-0.0375804375804375
1202	-0.0430180180180177
1203	-0.0358751608751607
1204	-0.0124195624195622
1205	0.0054375804375808
1206	0.01988416988417
1207	0.0450450450450451
1208	0.0953667953667956
1209	0.10453667953668
1210	0.142277992277992
1211	0.0883848133848135
1212	0.0832689832689835
1213	0.122876447876448
1214	0.15518018018018
1215	0.15518018018018
1216	0.160456885456885
1217	0.158590733590734
1218	0.151287001287001
1219	0.140572715572716
1220	0.124581724581725
1221	0.140894465894466
1222	0.187644787644788
1223	0.196653796653797
1224	0.230984555984556
1225	0.231145431145431
1226	0.249324324324324
1227	0.276351351351351
1228	0.28536036036036
1229	0.28536036036036
1230	0.279761904761905
1231	0.286904761904762
1232	0.301351351351351
1233	0.258333333333333
1234	0.265637065637066
1235	0.222458172458173
1236	0.211904761904762
1237	0.174163449163449
1238	0.161583011583012
1239	0.16515444015444
1240	0.159555984555985
1241	0.161422136422136
1242	0.155984555984556
1243	0.132689832689833
1244	0.116537966537967
1245	0.105662805662806
1246	0.0753861003861005
1247	0.105984555984556
1248	0.0898326898326899
1249	0.0449485199485201
1250	0.0323680823680824
1251	0.0378056628056629
1252	0.00379665379665395
1253	-0.0194980694980693
1254	-0.0229086229086227
1255	-0.0354890604890603
1256	-0.0643822393822394
1257	-0.0805341055341052
1258	-0.116409266409266
1259	-0.103828828828829
1260	-0.134427284427284
1261	-0.12557915057915
1262	-0.118436293436293
1263	-0.120302445302445
1264	-0.104150579150579
1265	-0.0897039897039895
1266	-0.0895431145431145
1267	-0.0824002574002575
1268	-0.100418275418275
1269	-0.0538288288288288
1270	-0.0574002574002573
1271	-0.0698198198198196
1272	-0.0914092664092663
1273	-0.0732303732303732
1274	-0.0713642213642213
1275	-0.0910875160875161
1276	-0.0693371943371941
1277	-0.0854890604890605
1278	-0.087194337194337
1279	-0.115926640926641
1280	-0.157400257400258
1281	-0.141248391248391
1282	-0.119658944658945
1283	-0.13037323037323
1284	-0.132239382239382
1285	-0.116087516087516
1286	-0.116087516087516
1287	-0.14481981981982
1288	-0.135810810810811
1289	-0.117792792792793
1290	-0.137516087516088
1291	-0.123069498069498
1292	-0.131917631917632
1293	-0.126480051480051
1294	-0.103185328185328
1295	-0.142792792792793
1296	-0.103185328185328
1297	-0.137194337194337
1298	-0.13005148005148
1299	-0.140765765765766
1300	-0.174774774774775
1301	-0.180212355212355
1302	-0.226962676962677
1303	-0.318758043758044
1304	-0.322168597168597
1305	-0.350740025740026
1306	-0.334588159588159
1307	-0.331016731016731
1308	-0.322007722007722
1309	-0.336454311454311
1310	-0.338320463320463
1311	-0.311293436293436
1312	-0.336454311454311
1313	-0.32014157014157
1314	-0.34546332046332
1315	-0.349034749034749
1316	-0.316570141570142
1317	-0.35057915057915
1318	-0.372329472329472
1319	-0.372329472329472
1320	-0.37046332046332
1321	-0.368597168597169
1322	-0.354150579150579
1323	-0.31470398970399
1324	-0.341891891891892
1325	-0.336615186615187
1326	-0.299034749034749
1327	-0.329633204633205
1328	-0.304633204633205
1329	-0.285070785070785
1330	-0.328249678249678
1331	-0.297812097812098
1332	-0.306821106821107
1333	-0.269079794079794
1334	-0.303410553410553
1335	-0.267535392535392
1336	-0.258687258687259
1337	-0.282142857142857
1338	-0.265990990990991
1339	-0.201222651222651
1340	-0.204954954954955
1341	-0.201383526383526
1342	-0.177927927927928
1343	-0.176222651222651
1344	-0.158204633204633
1345	-0.15479407979408
1346	-0.12979407979408
1347	-0.164124839124839
1348	-0.232625482625483
1349	-0.223777348777349
1350	-0.198616473616473
1351	-0.179054054054054
1352	-0.213223938223938
1353	-0.216795366795367
1354	-0.191634491634491
1355	-0.177348777348777
1356	-0.159330759330759
1357	-0.127348777348777
1358	-0.127348777348777
1359	-0.118339768339768
1360	-0.0680180180180178
1361	-0.0535714285714286
1362	-0.0875804375804374
1363	-0.0588481338481336
1364	-0.021106821106821
1365	-0.0569819819819819
1366	-0.0372586872586872
1367	-0.0479729729729729
1368	-0.0624195624195621
1369	-0.0714285714285714
1370	-0.05511583011583
1371	-0.0784105534105534
1372	-0.0838481338481335
1373	-0.0819819819819819
1374	-0.0802767052767049
1375	-0.0819819819819819
1376	-0.0658301158301157
1377	-0.0695624195624193
1378	-0.0659909909909907
1379	-0.0425353925353924
1380	-0.0661518661518661
1381	-0.0768661518661518
1382	-0.11988416988417
1383	-0.0712676962676961
1384	0.0222329472329476
1385	-0.0192406692406691
1386	0.00421492921492939
1387	0.0132239382239383
1388	0.0579472329472333
1389	0.0650900900900905
1390	0.0292149292149294
1391	0.0292149292149294
1392	0.0111969111969114
1393	-0.00666023166023166
1394	-0.0389639639639638
1395	-0.0838481338481335
1396	-0.0729729729729729
1397	-0.0731338481338478
1398	-0.0697232947232947
1399	-0.0823037323037321
1400	-0.105598455598455
1401	-0.075
1402	-0.0712676962676961
1403	-0.0408301158301158
1404	-0.0228120978120977
1405	-0.0336872586872587
1406	-0.0680180180180178
1407	-0.0987773487773486
1408	-0.0987773487773486
1409	-0.0611969111969111
1410	-0.025160875160875
1411	0.00714285714285712
1412	0.0124195624195624
1413	0.0141248391248394
1414	-0.00916988416988418
1415	-0.0200450450450447
1416	-0.00373230373230338
1417	0.0214285714285714
1418	0.078893178893179
1419	0.0948841698841701
1420	0.069723294723295
1421	0.107303732303732
1422	0.0568211068211071
1423	0.0602316602316604
1424	0.0784105534105537
1425	0.121428571428571
1426	0.117857142857143
1427	0.0855534105534108
1428	0.115990990990991
1429	0.117696267696268
1430	0.149839124839125
1431	0.185714285714286
1432	0.167696267696268
1433	0.174839124839125
1434	0.153249678249678
1435	0.158687258687259
1436	0.151544401544402
1437	0.133526383526384
1438	0.144401544401545
1439	0.115669240669241
1440	0.128088803088803
1441	0.185553410553411
1442	0.266473616473617
1443	0.307947232947233
1444	0.295366795366796
1445	0.26476833976834
1446	0.22532175032175
1447	0.187419562419562
1448	0.173133848133848
1449	0.140830115830116
1450	0.154954954954955
1451	0.124356499356499
1452	0.10990990990991
1453	0.0937580437580443
1454	0.054150579150579
1455	0.041731016731017
1456	0.0920527670527671
1457	0.0704633204633205
1458	0.153088803088803
1459	0.183848133848134
1460	0.140347490347491
1461	0.109749034749035
1462	0.131338481338481
1463	0.141891891891892
1464	0.127445302445303
1465	0.0970077220077219
1466	0.111454311454312
1467	0.0968468468468469
1468	0.0553732303732306
1469	0.0574002574002574
1470	0.0953024453024456
1471	0.0735521235521241
1472	0.0859716859716861
1473	0.109427284427285
1474	0.103828828828829
1475	0.10926640926641
1476	0.132561132561132
1477	0.11438223938224
1478	0.0586229086229086
1479	0.0208815958815962
1480	0.0264800514800518
1481	0.0570785070785074
1482	0.0749356499356502
1483	0.0895431145431147
1484	0.155694980694981
1485	0.229311454311454
1486	0.236293436293436
1487	0.252606177606178
1488	0.279633204633205
1489	0.302927927927928
1490	0.331660231660232
1491	0.302767052767053
1492	0.250900900900901
1493	0.283526383526384
1494	0.217213642213642
1495	0.23523166023166
1496	0.267857142857143
1497	0.268018018018018
1498	0.293178893178893
1499	0.282464607464608
1500	0.300643500643501
1501	0.356402831402831
1502	0.320527670527671
1503	0.32985842985843
1504	0.364189189189189
1505	0.357046332046332
1506	0.321010296010296
1507	0.313867438867439
1508	0.292277992277992
1509	0.310135135135135
1510	0.322715572715573
1511	0.318983268983269
1512	0.310135135135135
1513	0.308429858429859
1514	0.326608751608752
1515	0.358912483912484
1516	0.331885456885457
1517	0.297715572715573
1518	0.295849420849421
1519	0.301126126126126
1520	0.245688545688546
1521	0.207947232947233
1522	0.201126126126126
1523	0.20997425997426
1524	0.193983268983269
1525	0.172554697554698
1526	0.142277992277992
1527	0.120849420849421
1528	0.140411840411841
1529	0.124259974259974
1530	0.147554697554698
1531	0.124259974259974
1532	0.102831402831403
1533	0.115250965250965
1534	0.122393822393823
1535	0.16029601029601
1536	0.16029601029601
1537	0.151287001287001
1538	0.147554697554698
1539	0.150965250965251
1540	0.140250965250965
1541	0.149259974259974
1542	0.197554697554698
1543	0.208429858429859
1544	0.197715572715573
1545	0.163545688545689
1546	0.113384813384814
1547	0.118822393822394
1548	0.0900900900900904
1549	0.0472329472329476
1550	0.0453667953667954
1551	0.0310810810810812
1552	0.0579472329472333
1553	0.113706563706564
1554	0.0795366795366796
1555	0.050804375804376
1556	0.000482625482625565
1557	-0.00106177606177593
1558	-0.026222651222651
1559	-0.0153474903474903
1560	-0.026222651222651
1561	-0.0333655083655082
1562	-0.0173745173745172
1563	-0.00122265122265108
1564	-0.0588481338481336
1565	-0.0732947232947232
1566	-0.0821428571428571
1567	-0.128893178893179
1568	-0.102027027027027
1569	-0.0965894465894463
1570	-0.148616473616473
1571	-0.163063063063063
1572	-0.186518661518661
1573	-0.23497425997426
1574	-0.229375804375804
1575	-0.254536679536679
1576	-0.256402831402831
1577	-0.245688545688545
1578	-0.254536679536679
1579	-0.234813384813384
1580	-0.220366795366795
1581	-0.248938223938224
1582	-0.196911196911197
1583	-0.236196911196911
1584	-0.230598455598455
1585	-0.189285714285714
1586	-0.194562419562419
1587	-0.203571428571429
1588	-0.201544401544401
1589	-0.246428571428571
1590	-0.190669240669241
1591	-0.145624195624195
1592	-0.111454311454311
1593	-0.122329472329472
1594	-0.0793114543114544
1595	-0.0453024453024451
1596	-0.0526061776061776
1597	-0.00601673101673084
1598	0.00283140283140293
1599	-0.00260617760617743
1600	0.038867438867439
1601	0.0783140283140283
1602	0.110617760617761
1603	0.137483912483912
1604	0.135617760617761
1605	0.139028314028314
1606	0.155019305019305
1607	0.178314028314028
1608	0.183590733590734
1609	0.266055341055341
1610	0.244305019305019
1611	0.280341055341055
1612	0.32506435006435
1613	0.29430501930502
1614	0.289028314028314
1615	0.280019305019305
1616	0.2997425997426
1617	0.326608751608752
1618	0.346332046332046
1619	0.365894465894466
1620	0.371171171171171
1621	0.380019305019305
1622	0.428314028314028
1623	0.420849420849421
1624	0.447554697554698
1625	0.467438867438868
1626	0.404697554697555
1627	0.40997425997426
1628	0.445849420849421
1629	0.481724581724582
1630	0.483590733590734
1631	0.446010296010296
1632	0.431563706563707
1633	0.418983268983269
1634	0.367117117117117
1635	0.381402831402832
1636	0.397554697554698
1637	0.390572715572716
1638	0.354697554697555
1639	0.370849420849421
1640	0.397715572715573
1641	0.367438867438868
1642	0.372876447876448
1643	0.325965250965251
1644	0.35485842985843
1645	0.321010296010296
1646	0.362323037323038
1647	0.346171171171171
1648	0.306724581724582
1649	0.310617760617761
1650	0.328474903474904
1651	0.364350064350065
1652	0.367921492921493
1653	0.362644787644788
1654	0.37506435006435
1655	0.387805662805663
1656	0.411100386100386
1657	0.398680823680824
1658	0.355823680823681
1659	0.363288288288288
1660	0.331145431145431
1661	0.331145431145431
1662	0.395752895752896
1663	0.399324324324324
1664	0.367181467181467
1665	0.347458172458173
1666	0.313127413127413
1667	0.322136422136422
1668	0.349163449163449
1669	0.336583011583012
1670	0.367181467181467
1671	0.361904761904762
1672	0.360199485199485
1673	0.352895752895753
1674	0.350868725868726
1675	0.34015444015444
1676	0.304440154440155
1677	0.289993564993565
1678	0.272136422136422
1679	0.331628056628057
1680	0.30460102960103
1681	0.320592020592021
1682	0.318725868725869
1683	0.333172458172458
1684	0.324163449163449
1685	0.338288288288288
1686	0.307850707850708
1687	0.273841698841699
1688	0.227252252252252
1689	0.250546975546976
1690	0.198680823680824
1691	0.160939510939511
1692	0.121492921492922
1693	0.114350064350065
1694	0.137644787644788
1695	0.121492921492922
1696	0.135939510939511
1697	0.112644787644788
1698	0.0983590733590735
1699	0.067921492921493
1700	0.0680823680823681
1701	0.0752252252252253
1702	0.0898326898326899
1703	0.0753861003861005
1704	0.0305019305019306
1705	0.0287966537966537
1706	0.0413770913770916
1707	0.0379665379665379
1708	0.0235199485199487
1709	0.00752895752895766
1710	-0.00302445302445298
1711	-0.028024453024453
1712	-0.0351673101673102
1713	-0.0513191763191763
1714	-0.0638996138996138
1715	-0.0979086229086228
1716	-0.104890604890605
1717	-0.167631917631918
1718	-0.194337194337194
1719	-0.212194337194337
1720	-0.228185328185328
1721	-0.274774774774775
1722	-0.260328185328185
1723	-0.242310167310167
1724	-0.220720720720721
1725	-0.25472972972973
1726	-0.236872586872587
1727	-0.206274131274131
1728	-0.208140283140283
1729	-0.186550836550836
1730	-0.208140283140283
1731	-0.197425997425997
1732	-0.206435006435006
1733	-0.226319176319176
1734	-0.25505148005148
1735	-0.237194337194337
1736	-0.251801801801802
1737	-0.240926640926641
1738	-0.307561132561132
1739	-0.300418275418275
1740	-0.285971685971686
1741	-0.303989703989704
1742	-0.325740025740026
1743	-0.331338481338481
1744	-0.336615186615187
1745	-0.361936936936937
1746	-0.361936936936937
1747	-0.349517374517374
1748	-0.378410553410553
1749	-0.372972972972973
1750	-0.33523166023166
1751	-0.376544401544401
1752	-0.380276705276705
1753	-0.331821106821107
1754	-0.351705276705276
1755	-0.364446589446589
1756	-0.37532175032175
1757	-0.366151866151866
1758	-0.396750321750321
1759	-0.425482625482625
1760	-0.412902187902188
1761	-0.436357786357786
1762	-0.459652509652509
1763	-0.452509652509652
1764	-0.472232947232947
1765	-0.493822393822394
1766	-0.497393822393822
1767	-0.513545688545688
1768	-0.533429858429858
1769	-0.524259974259974
1770	-0.538706563706564
1771	-0.552992277992278
1772	-0.542117117117117
1773	-0.587001287001287
1774	-0.54552767052767
1775	-0.563384813384813
1776	-0.563384813384813
1777	-0.541795366795367
1778	-0.532625482625482
1779	-0.545045045045045
1780	-0.528893178893179
1781	-0.536036036036036
1782	-0.509169884169884
1783	-0.552187902187902
1784	-0.521589446589446
1785	-0.550482625482625
1786	-0.627831402831403
1787	-0.66029601029601
1788	-0.665572715572715
1789	-0.714189189189189
1790	-0.719626769626769
1791	-0.708912483912484
1792	-0.694465894465894
1793	-0.685456885456885
1794	-0.696332046332046
1795	-0.70550193050193
1796	-0.70006435006435
1797	-0.64073359073359
1798	-0.626447876447876
1799	-0.639189189189189
1800	-0.58529601029601
1801	-0.603474903474903
1802	-0.598198198198198
1803	-0.580341055341055
1804	-0.544465894465894
1805	-0.550225225225225
1806	-0.539510939510939
1807	-0.523519948519948
1808	-0.528957528957529
1809	-0.525546975546975
1810	-0.473519948519948
1811	-0.462805662805662
1812	-0.398198198198198
1813	-0.428957528957529
1814	-0.429118404118404
1815	-0.405984555984556
1816	-0.400707850707851
1817	-0.393725868725869
1818	-0.397458172458172
1819	-0.376029601029601
1820	-0.388610038610038
1821	-0.291537966537966
1822	-0.22506435006435
1823	-0.137001287001287
1824	-0.147876447876447
1825	-0.131563706563707
1826	-0.0758043758043756
1827	-0.0598133848133844
1828	-0.038223938223938
1829	-0.0455276705276701
1830	0.0155083655083657
1831	0.0944015444015445
1832	0.0906692406692409
1833	0.0653474903474904
1834	0.0724903474903476
1835	0.0850707850707852
1836	0.0582046332046335
1837	0.0797940797940799
1838	0.0905083655083656
1839	0.101222651222652
1840	0.0599099099099101
1841	0.0996782496782498
1842	0.162419562419563
1843	0.167696267696268
1844	0.190669240669241
1845	0.18523166023166
1846	0.138481338481339
1847	0.174356499356499
1848	0.152767052767053
1849	0.181660231660232
1850	0.213963963963964
1851	0.212258687258687
1852	0.212258687258687
1853	0.268178893178893
1854	0.273616473616474
1855	0.240990990990991
1856	0.284009009009009
1857	0.246267696267697
1858	0.226544401544402
1859	0.221106821106821
1860	0.258848133848134
1861	0.276705276705277
1862	0.287258687258687
1863	0.292857142857143
1864	0.314285714285714
1865	0.36444658944659
1866	0.346428571428572
1867	0.298133848133848
1868	0.321428571428572
1869	0.359169884169884
1870	0.375160875160875
1871	0.362741312741313
1872	0.380759330759331
1873	0.406081081081081
1874	0.406081081081081
1875	0.427509652509653
1876	0.45453667953668
1877	0.477670527670528
1878	0.420366795366796
1879	0.445527670527671
1880	0.449581724581725
1881	0.462162162162162
1882	0.487483912483913
1883	0.480341055341055
1884	0.480501930501931
1885	0.467921492921493
1886	0.45518018018018
1887	0.465894465894466
1888	0.47506435006435
1889	0.433751608751609
1890	0.439189189189189
1891	0.505984555984556
1892	0.446814671814672
1893	0.47027027027027
1894	0.495431145431145
1895	0.499163449163449
1896	0.482850707850708
1897	0.500707850707851
1898	0.504440154440155
1899	0.502574002574003
1900	0.459395109395109
1901	0.401930501930502
1902	0.362483912483913
1903	0.373198198198198
1904	0.357046332046332
1905	0.321010296010296
1906	0.319465894465895
1907	0.303153153153153
1908	0.288706563706564
1909	0.277831402831403
1910	0.256402831402832
1911	0.233429858429859
1912	0.256724581724582
1913	0.208268983268983
1914	0.226126126126126
1915	0.226126126126126
1916	0.242117117117117
1917	0.283429858429859
1918	0.256241956241956
1919	0.220366795366796
1920	0.200321750321751
1921	0.22020592020592
1922	0.234813384813385
1923	0.216956241956242
1924	0.153893178893179
1925	0.191473616473616
1926	0.207625482625483
1927	0.232464607464608
1928	0.237902187902188
1929	0.223294723294724
1930	0.228410553410554
1931	0.203249678249678
1932	0.165669240669241
1933	0.158687258687259
1934	0.111936936936937
1935	0.113803088803089
1936	0.14456241956242
1937	0.171267696267696
1938	0.190990990990991
1939	0.212580437580438
1940	0.189124839124839
1941	0.144079794079794
1942	0.152767052767053
1943	0.170785070785071
1944	0.15990990990991
1945	0.167052767052767
1946	0.168758043758044
1947	0.179311454311454
1948	0.172168597168597
1949	0.161615186615187
1950	0.133043758043758
1951	0.0631595881595881
1952	0.0235521235521239
1953	-0.0104568854568856
1954	-0.00485842985842955
1955	0.0310167310167313
1956	0.000579150579150589
1957	-0.019305019305019
1958	-0.0318854568854567
1959	-0.00859073359073337
1960	0.0543114543114545
1961	0.0345881595881596
1962	0.0272844272844275
1963	0.00228442728442735
1964	0.0344272844272846
1965	0.041731016731017
1966	0.0328828828828831
1967	0.0362934362934364
1968	0.0684362934362934
1969	0.0487129987129991
1970	0.0487129987129991
1971	0.0342664092664096
1972	0.0250965250965254
1973	0.0324002574002573
1974	0.0575611325611325
1975	-0.0162162162162158
1976	-0.0340733590733588
1977	-0.0157335907335905
1978	-0.0208494208494208
1979	-0.00112612612612573
1980	0.0168918918918921
1981	-0.00810810810810825
1982	-0.0025096525096524
1983	-0.0130630630630628
1984	-0.00949163449163426
1985	-0.0239382239382238
1986	0.00495495495495524
1987	0.0624195624195625
1988	0.0535714285714286
1989	0.0823037323037323
1990	0.0787323037323038
1991	0.0355534105534108
1992	0.0445624195624197
1993	0.0426962676962679
1994	0.0588481338481341
1995	0.0319819819819822
1996	-0.0200450450450447
1997	-0.0018661518661518
1998	-0.0448841698841699
1999	-0.0625804375804375
2000	-0.103732303732303
2001	-0.126866151866152
2002	-0.166312741312741
2003	-0.180598455598456
2004	-0.205598455598456
2005	-0.218178893178893
2006	-0.198294723294723
2007	-0.182142857142857
2008	-0.207142857142857
2009	-0.235553410553411
2010	-0.287580437580437
2011	-0.23523166023166
2012	-0.208204633204633
2013	-0.183043758043758
2014	-0.226061776061776
2015	-0.254633204633205
2016	-0.258204633204633
2017	-0.254633204633205
2018	-0.252927927927928
2019	-0.276222651222651
2020	-0.299517374517374
2021	-0.279633204633204
2022	-0.299517374517374
2023	-0.319079794079794
2024	-0.304633204633205
2025	-0.30990990990991
2026	-0.347812097812098
2027	-0.311615186615187
2028	-0.287998712998713
2029	-0.303989703989704
2030	-0.332561132561132
2031	-0.339864864864865
2032	-0.374195624195624
2033	-0.386936936936937
2034	-0.363642213642213
2035	-0.360070785070785
2036	-0.302606177606177
2037	-0.279472329472329
2038	-0.238159588159588
2039	-0.19514157014157
2040	-0.157400257400258
2041	-0.121525096525097
2042	-0.148391248391248
2043	-0.178989703989704
2044	-0.144980694980695
2045	-0.152284427284427
2046	-0.109266409266409
2047	-0.123873873873874
2048	-0.159909909909909
2049	-0.183526383526383
2050	-0.183687258687259
2051	-0.181981981981982
2052	-0.160392535392535
2053	-0.14967824967825
2054	-0.128088803088803
2055	-0.108526383526383
2056	-0.108687258687259
2057	-0.123294723294723
2058	-0.105276705276705
2059	-0.0874195624195622
2060	-0.0821428571428571
2061	-0.0734555984555983
2062	-0.0321428571428571
2063	-0.0360360360360359
2064	-0.0613577863577861
2065	-0.0327863577863576
2066	0.0136422136422136
2067	0.0352316602316605
2068	0.0982947232947237
2069	0.14488416988417
2070	0.152027027027027
2071	0.153732303732304
2072	0.117696267696268
2073	0.117696267696268
2074	0.121267696267697
2075	0.0801158301158302
2076	0.0729729729729729
2077	0.0459459459459459
2078	0.0707850707850708
2079	0.0780888030888034
2080	0.0495173745173747
2081	0.0440797940797943
2082	0.0279279279279279
2083	0.0425353925353926
2084	0.0515444015444015
2085	0.0768661518661523
2086	0.0948841698841701
2087	0.157464607464608
2088	0.137419562419562
2089	0.117535392535393
2090	0.0976512226512227
2091	0.106660231660232
2092	0.133687258687259
2093	0.182142857142857
2094	0.176544401544402
2095	0.181821106821107
2096	0.201705276705277
2097	0.207142857142857
2098	0.232142857142857
2099	0.235875160875161
2100	0.251866151866152
2101	0.217696267696268
2102	0.187258687258687
2103	0.185392535392536
2104	0.201544401544402
2105	0.187258687258687
2106	0.174839124839125
2107	0.187419562419562
2108	0.216151866151866
2109	0.214446589446589
2110	0.243018018018018
2111	0.26988416988417
2112	0.285875160875161
2113	0.291151866151867
2114	0.244401544401545
2115	0.253410553410554
2116	0.292857142857143
2117	0.303732303732304
2118	0.33433075933076
2119	0.32532175032175
2120	0.363063063063063
2121	0.370366795366796
2122	0.364929214929215
2123	0.29520592020592
2124	0.271911196911197
2125	0.288223938223938
2126	0.273938223938224
2127	0.295527670527671
2128	0.284813384813385
2129	0.27953667953668
2130	0.266956241956242
2131	0.297393822393822
2132	0.288384813384813
2133	0.261518661518662
2134	0.243822393822394
2135	0.218661518661519
2136	0.243822393822394
2137	0.258268983268984
2138	0.233268983268983
2139	0.237162162162162
2140	0.193983268983269
2141	0.140250965250965
2142	0.136679536679537
2143	0.132947232947233
2144	0.116956241956242
2145	0.102509652509652
2146	0.0630630630630632
2147	0.0596525096525097
2148	0.0256435006435008
2149	0.023938223938224
2150	0.0781531531531533
2151	0.0745817245817247
2152	0.0655727155727157
2153	0.0745817245817247
2154	0.0439832689832692
2155	0.0242599742599744
2156	0.00997425997426005
2157	-0.00463320463320449
2158	-0.00292792792792773
2159	0.00250965250965263
2160	0.0349742599742601
2161	0.0261261261261263
2162	-0.00260617760617743
2163	-0.0311776061776061
2164	-0.0906692406692405
2165	-0.0888030888030886
2166	-0.0833655083655082
2167	-0.142374517374517
2168	-0.169401544401544
2169	-0.160392535392535
2170	-0.138803088803089
2171	-0.0991956241956239
2172	-0.122329472329472
2173	-0.134749034749035
2174	-0.11502574002574
2175	-0.106177606177606
2176	-0.0701415701415701
2177	-0.027123552123552
2178	-0.010971685971686
2179	-0.0198198198198197
2180	-0.0216859716859717
2181	-0.0252574002574004
2182	-9.65250965251352e-05
2183	-0.0362934362934362
2184	0.00501930501930514
2185	0.0104568854568853
2186	-0.00212355212355197
2187	-0.0289897039897038
2188	-0.0665701415701415
2189	-0.0378378378378378
2190	-0.0215250965250966
2191	0.00176962676962666
2192	-0.010971685971686
2193	-0.0449806949806949
2194	-0.0466859716859718
2195	-0.0395431145431147
2196	-0.0431145431145432
2197	-0.0414092664092662
2198	-0.0505791505791505
2199	-0.0668918918918918
2200	-0.0235521235521234
2201	-0.0379987129987128
2202	-0.0254182754182753
2203	0.00160875160875174
2204	0.00518018018018029
2205	0.00704633204633209
2206	-0.00740025740025751
2207	-0.0216859716859717
2208	-0.0164092664092663
2209	-0.0147039897039896
2210	-0.0362934362934362
2211	-0.0488738738738738
2212	-0.0740347490347488
2213	-0.0811776061776061
2214	-0.0738738738738738
2215	-0.063159588159588
2216	-0.0828828828828829
2217	-0.0682754182754181
2218	-0.0664092664092661
2219	-0.0643822393822394
2220	-0.0841055341055339
2221	-0.0983912483912482
2222	-0.107400257400257
2223	-0.107561132561132
2224	-0.12014157014157
2225	-0.132722007722008
2226	-0.179472329472329
2227	-0.23523166023166
2228	-0.222490347490347
2229	-0.244079794079794
2230	-0.24034749034749
2231	-0.258365508365508
2232	-0.245785070785071
2233	-0.238481338481338
2234	-0.182561132561132
2235	-0.177123552123552
2236	-0.198712998712999
2237	-0.218436293436293
2238	-0.247007722007722
2239	-0.266891891891892
2240	-0.290186615186615
2241	-0.279472329472329
2242	-0.284749034749035
2243	-0.279472329472329
2244	-0.288481338481338
2245	-0.266891891891892
2246	-0.277606177606177
2247	-0.302767052767052
2248	-0.306338481338481
2249	-0.320624195624195
2250	-0.353088803088803
2251	-0.397972972972973
2252	-0.379954954954955
2253	-0.421267696267696
2254	-0.451866151866152
2255	-0.419562419562419
2256	-0.406981981981982
2257	-0.412419562419562
2258	-0.406981981981982
2259	-0.374517374517374
2260	-0.383687258687259
2261	-0.419723294723295
2262	-0.389285714285714
2263	-0.356821106821107
2264	-0.34967824967825
2265	-0.299195624195624
2266	-0.295624195624195
2267	-0.259588159588159
2268	-0.293758043758044
2269	-0.299356499356499
2270	-0.301222651222651
2271	-0.283204633204633
2272	-0.227606177606178
2273	-0.229311454311454
2274	-0.197007722007722
2275	-0.229311454311454
2276	-0.198712998712999
2277	-0.238159588159588
2278	-0.25990990990991
2279	-0.297651222651222
2280	-0.299356499356499
2281	-0.301222651222651
2282	-0.322972972972973
2283	-0.306821106821107
2284	-0.344562419562419
2285	-0.319562419562419
2286	-0.272972972972973
2287	-0.233526383526383
2288	-0.219401544401544
2289	-0.201383526383526
2290	-0.219401544401544
2291	-0.228410553410553
2292	-0.262580437580437
2293	-0.23011583011583
2294	-0.228249678249678
2295	-0.267857142857143
2296	-0.258848133848134
2297	-0.251544401544401
2298	-0.24967824967825
2299	-0.251544401544401
2300	-0.244401544401544
2301	-0.226544401544401
2302	-0.246428571428571
2303	-0.24488416988417
2304	-0.26476833976834
2305	-0.268339768339768
2306	-0.22532175032175
2307	-0.223616473616473
2308	-0.255920205920206
2309	-0.223777348777349
2310	-0.22020592020592
2311	-0.193339768339768
2312	-0.170045045045045
2313	-0.177509652509652
2314	-0.171911196911197
2315	-0.16476833976834
2316	-0.137902187902188
2317	-0.14488416988417
2318	-0.106981981981982
2319	-0.0925353925353923
2320	-0.062097812097812
2321	-0.0944015444015444
2322	-0.115830115830116
2323	-0.117696267696268
2324	-0.12467824967825
2325	-0.137419562419562
2326	-0.101383526383526
2327	-0.146428571428571
2328	-0.175160875160875
2329	-0.22020592020592
2330	-0.227509652509652
2331	-0.191473616473616
2332	-0.178893178893179
2333	-0.196911196911197
2334	-0.202509652509652
2335	-0.191795366795367
2336	-0.21509009009009
2337	-0.188063063063063
2338	-0.139607464607464
2339	-0.161196911196911
2340	-0.130598455598455
2341	-0.114446589446589
2342	-0.189929214929215
2343	-0.186357786357786
2344	-0.182786357786358
2345	-0.200482625482625
2346	-0.207625482625483
2347	-0.218339768339768
2348	-0.241795366795367
2349	-0.214607464607464
2350	-0.186036036036036
2351	-0.171589446589446
2352	-0.175160875160875
2353	-0.157303732303732
2354	-0.155598455598455
2355	-0.188063063063063
2356	-0.18075933075933
2357	-0.178893178893179
2358	-0.189607464607464
2359	-0.205598455598456
2360	-0.207464607464607
2361	-0.214607464607464
2362	-0.21476833976834
2363	-0.153571428571429
2364	-0.126705276705276
2365	-0.119562419562419
2366	-0.0855534105534104
2367	-0.110714285714286
2368	-0.0694015444015443
2369	-0.0155083655083653
2370	0.0115186615186619
2371	0.0222329472329476
2372	0.0472329472329476
2373	0.023938223938224
2374	0.00794723294723332
2375	0.0351351351351352
2376	0.0567245817245818
2377	0.020849420849421
2378	0.0516087516087519
2379	0.0281531531531534
2380	0.0210102960102961
2381	0.0279922779922781
2382	0.00267052767052778
2383	0.0366795366795368
2384	0.0654118404118404
2385	0.0671171171171172
2386	0.05997425997426
2387	0.0455276705276706
2388	0.0329472329472332
2389	0.0275096525096525
2390	0.0348133848133849
2391	0.0887065637065638
2392	0.0922779922779924
2393	0.106563706563707
2394	0.0973938223938225
2395	0.093822393822394
2396	0.0667953667953669
2397	0.0972329472329475
2398	0.106402831402831
2399	0.117277992277992
2400	0.151447876447877
2401	0.169305019305019
2402	0.144144144144144
2403	0.1997425997426
2404	0.185456885456886
2405	0.14942084942085
2406	0.126287001287001
2407	0.113867438867439
2408	0.115733590733591
2409	0.0977155727155729
2410	0.0616795366795369
2411	0.0310810810810812
2412	-0.00122265122265108
2413	0.0365186615186618
2414	0.0292149292149294
2415	0.0382239382239383
2416	0.0382239382239383
2417	0.0329472329472332
2418	0.0796975546975549
2419	0.0742599742599743
2420	0.0312419562419564
2421	0.0203667953667953
2422	0.00965250965250974
2423	0.0115186615186619
2424	0.00794723294723332
2425	0.00250965250965263
2426	0.0203667953667953
2427	-0.017213642213642
2428	-0.03523166023166
2429	-0.046106821106821
2430	-0.0656692406692405
2431	-0.0423745173745173
2432	-0.0189189189189188
2433	-0.0333655083655082
2434	-0.0243564993564992
2435	-0.062097812097812
2436	-0.0998391248391248
2437	-0.096106821106821
2438	-0.113963963963964
2439	-0.148294723294723
2440	-0.180598455598456
2441	-0.155276705276705
2442	-0.153732303732304
2443	-0.159169884169884
2444	-0.191473616473616
2445	-0.182464607464607
2446	-0.162741312741313
2447	-0.128732303732303
2448	-0.137741312741313
2449	-0.127187902187902
2450	-0.130920205920206
2451	-0.138063063063063
2452	-0.138063063063063
2453	-0.132625482625482
2454	-0.173938223938224
2455	-0.222554697554697
2456	-0.182947232947233
2457	-0.172072072072072
2458	-0.172072072072072
2459	-0.123616473616473
2460	-0.139929214929215
2461	-0.100643500643501
2462	-0.0863577863577862
2463	-0.0560810810810808
2464	-0.0040540540540539
2465	0.0265444015444016
2466	0.0802767052767055
2467	0.0961068211068214
2468	0.126544401544401
2469	0.139124839124839
2470	0.126383526383527
2471	0.129954954954955
2472	0.181981981981982
2473	0.187258687258687
2474	0.223133848133848
2475	0.171106821106821
2476	0.215830115830116
2477	0.228410553410554
2478	0.221428571428572
2479	0.221428571428572
2480	0.277027027027027
2481	0.284169884169884
2482	0.303732303732304
2483	0.298455598455599
2484	0.316312741312741
2485	0.309169884169884
2486	0.310875160875161
2487	0.362741312741313
2488	0.398616473616474
2489	0.39488416988417
2490	0.441473616473617
2491	0.517117117117117
2492	0.517117117117117
2493	0.536840411840412
2494	0.556563706563707
2495	0.479214929214929
2496	0.527670527670528
2497	0.50997425997426
2498	0.468822393822394
2499	0.427670527670528
2500	0.391795366795367
2501	0.345045045045045
2502	0.305598455598456
2503	0.286036036036036
2504	0.26988416988417
2505	0.226866151866152
2506	0.218018018018018
2507	0.235875160875161
2508	0.237741312741313
2509	0.263063063063063
2510	0.26476833976834
2511	0.323938223938224
2512	0.290090090090091
2513	0.26476833976834
2514	0.323938223938224
2515	0.357947232947233
2516	0.320205920205921
2517	0.268018018018018
2518	0.250482625482626
2519	0.212902187902188
2520	0.221911196911197
2521	0.197072072072072
2522	0.213545688545689
2523	0.170688545688546
2524	0.127670527670528
2525	0.115090090090091
2526	0.111518661518662
2527	0.0810810810810811
2528	0.0504826254826257
2529	0.0290540540540543
2530	0.0254826254826256
2531	0.0363577863577865
2532	0.0167953667953669
2533	-0.0136422136422134
2534	-0.0406692406692405
2535	-0.0748391248391247
2536	-0.0549549549549548
2537	-0.0765444015444013
2538	-0.0692406692406691
2539	-0.126544401544401
2540	-0.162419562419562
2541	-0.113963963963964
2542	-0.0995173745173744
2543	-0.106660231660232
2544	-0.108365508365508
2545	-0.138963963963964
2546	-0.135392535392535
2547	-0.156660231660232
2548	-0.164285714285714
2549	-0.162419562419562
2550	-0.212741312741313
2551	-0.228732303732304
2552	-0.205276705276705
2553	-0.162097812097812
2554	-0.181981981981982
2555	-0.153249678249678
2556	-0.137097812097812
2557	-0.117535392535392
2558	-0.121267696267696
2559	-0.131981981981982
2560	-0.123133848133848
2561	-0.132142857142857
2562	-0.153571428571429
2563	-0.142857142857143
2564	-0.15
2565	-0.157303732303732
2566	-0.186036036036036
2567	-0.196750321750322
2568	-0.184330759330759
2569	-0.177187902187902
2570	-0.164607464607464
2571	-0.0964285714285714
2572	-0.112741312741313
2573	-0.0265444015444015
2574	0.00746460746460753
2575	0.0271879021879022
2576	0.0559202059202061
2577	0.0900900900900904
2578	0.125804375804376
2579	0.0863577863577867
2580	0.0448841698841699
2581	0.0700450450450453
2582	0.0773487773487777
2583	0.0232947232947237
2584	0.0559202059202061
2585	0.0326254826254827
2586	0.0417953667953668
2587	0.0147683397683398
2588	0.00949163449163459
2589	0.0220720720720723
2590	0.00405405405405423
2591	-0.00170527670527643
2592	0.00730373230373238
2593	-0.0430180180180177
2594	-0.0285714285714286
2595	-0.0323037323037321
2596	-0.0304375804375804
2597	0.0161518661518664
2598	0.0251608751608752
2599	0.0234555984555986
2600	0.0486164736164737
2601	0.0394465894465894
2602	0.0753217503217505
2603	0.0860360360360362
2604	0.0358751608751608
2605	0.0142857142857145
2606	0.0482947232947236
2607	0.0358751608751608
2608	0.0232947232947237
2609	-0.0107142857142857
2610	-0.0285714285714286
2611	-0.0231338481338479
2612	-0.0447232947232946
2613	-0.0841698841698841
2614	-0.130920205920206
2615	-0.129054054054054
2616	-0.0858751608751607
2617	-0.12532175032175
2618	-0.112741312741313
2619	-0.0515444015444014
2620	-0.0586872586872585
2621	-0.0585263835263833
2622	-0.0496782496782495
2623	-0.0513835263835263
2624	-0.0909909909909907
2625	-0.0926962676962676
2626	-0.0853925353925353
2627	-0.0814993564993564
2628	-0.151383526383526
2629	-0.0776061776061775
2630	-0.0776061776061775
2631	-0.0487129987129986
2632	-0.0379987129987128
2633	-0.0737129987129986
2634	-0.095302445302445
2635	-0.102445302445302
2636	-0.102445302445302
2637	-0.0949806949806948
2638	-0.136132561132561
2639	-0.123552123552123
2640	-0.0931145431145431
2641	-0.0733912483912482
2642	-0.114543114543115
2643	-0.0929536679536679
2644	-0.0858108108108109
2645	-0.125418275418275
2646	-0.103989703989704
2647	-0.0754182754182752
2648	-0.061132561132561
2649	-0.072007722007722
2650	-0.077123552123552
2651	-0.0538288288288288
2652	-0.0861325611325611
2653	-0.0574002574002573
2654	-0.0643822393822394
2655	-0.0626769626769624
2656	-0.0699806949806948
2657	-0.0359716859716861
2658	-0.0701415701415701
2659	-0.0182754182754181
2660	-0.0272844272844271
2661	-0.0507400257400257
2662	-0.0129987129987129
2663	-0.0650257400257399
2664	-0.0043114543114543
2665	-0.0636422136422135
2666	-0.0746782496782495
2667	-0.0945624195624192
2668	-0.0874195624195622
2669	-0.0712676962676961
2670	-0.0425353925353924
2671	-0.0624195624195621
2672	-0.055276705276705
2673	-0.0608751608751606
2674	-0.0538931788931788
2675	-0.0448841698841699
2676	-0.0285714285714286
2677	-0.0644465894465892
2678	-0.0663127413127413
2679	-0.0914736164736162
2680	-0.0646074646074645
2681	-0.050160875160875
2682	-0.0950450450450447
2683	-0.102187902187902
2684	-0.125482625482625
2685	-0.129054054054054
2686	-0.120366795366795
2687	-0.106081081081081
2688	-0.0880630630630628
2689	-0.0953667953667952
2690	-0.131402831402831
2691	-0.152992277992278
2692	-0.158429858429858
2693	-0.160135135135135
2694	-0.149259974259974
2695	-0.16541184041184
2696	-0.11509009009009
2697	-0.0826254826254825
2698	-0.0576254826254824
2699	-0.0579472329472328
2700	-0.0560810810810808
2701	-0.0453667953667951
2702	-0.0379021879021877
2703	-0.0125804375804374
2704	-0.0880630630630628
2705	-0.0935006435006435
2706	-0.0809202059202058
2707	-0.0538931788931788
2708	-0.0110360360360358
2709	-0.0018661518661518
2710	-0.00543758043758036
2711	0.00714285714285712
2712	-0.0074646074646072
2713	0.0122586872586874
2714	0.0336872586872587
2715	0.0173745173745175
2716	-0.0147683397683396
2717	0.0318211068211072
2718	0.0784105534105537
2719	0.0908301158301159
2720	0.122972972972973
2721	0.139124839124839
2722	0.113963963963964
2723	0.0995173745173745
2724	0.0886422136422136
2725	0.101222651222652
2726	0.110231660231661
2727	0.120945945945946
2728	0.13011583011583
2729	0.112097812097812
2730	0.133687258687259
2731	0.128410553410554
2732	0.137419562419562
2733	0.128410553410554
2734	0.110553410553411
2735	0.135875160875161
2736	0.0801158301158302
2737	0.128732303732304
2738	0.101705276705277
2739	0.108687258687259
2740	0.202187902187902
2741	0.164446589446589
2742	0.146428571428571
2743	0.112097812097812
2744	0.0925353925353927
2745	0.0672136422136425
2746	0.0745173745173746
2747	0.0780888030888034
2748	0.0889639639639643
2749	0.0996782496782498
2750	0.134009009009009
2751	0.134169884169884
2752	0.128732303732304
2753	0.0838481338481341
2754	0.0874195624195626
2755	0.0372586872586873
2756	0.0124195624195624
2757	0.0232947232947237
2758	0.0521879021879023
2759	0.0650900900900905
2760	0.0543758043758047
2761	0.0417953667953668
2762	0.0453667953667954
2763	-0.0192406692406691
2764	-0.0246782496782497
2765	-0.00666023166023166
2766	-0.0301158301158301
2767	-0.0353925353925353
2768	-0.0731338481338478
2769	-0.0875804375804374
2770	-0.116473616473616
2771	-0.112741312741313
2772	-0.0982947232947231
2773	-0.116312741312741
2774	-0.116312741312741
2775	-0.136036036036036
2776	-0.193500643500643
2777	-0.153893178893179
2778	-0.177187902187902
2779	-0.157303732303732
2780	-0.193178893178893
2781	-0.184169884169884
2782	-0.171750321750322
2783	-0.180598455598456
2784	-0.198455598455598
2785	-0.214446589446589
2786	-0.257625482625482
2787	-0.277509652509652
2788	-0.286357786357786
2789	-0.241312741312741
2790	-0.262902187902188
2791	-0.25032175032175
2792	-0.257625482625482
2793	-0.284652509652509
2794	-0.31509009009009
2795	-0.316956241956242
2796	-0.327831402831403
2797	-0.333108108108108
2798	-0.347554697554697
2799	-0.307947232947233
2800	-0.347554697554697
2801	-0.417921492921493
2802	-0.419787644787645
2803	-0.414671814671814
2804	-0.443564993564993
2805	-0.484877734877735
2806	-0.430984555984556
2807	-0.424002574002574
2808	-0.387966537966538
2809	-0.377252252252252
2810	-0.366537966537966
2811	-0.377413127413127
2812	-0.350546975546975
2813	-0.363127413127413
2814	-0.334395109395109
2815	-0.323519948519948
2816	-0.323680823680824
2817	-0.291377091377091
2818	-0.29494851994852
2819	-0.287966537966538
2820	-0.257528957528957
2821	-0.264832689832689
2822	-0.248680823680824
2823	-0.20550193050193
2824	-0.158912483912484
2825	-0.13561776061776
2826	-0.121171171171171
2827	-0.108590733590733
2828	-0.106724581724582
2829	-0.0905727155727154
2830	-0.0655727155727155
2831	-0.108912483912484
2832	-0.0675997425997426
2833	-0.0425997425997426
2834	-0.0138674388674387
2835	0.0129987129987132
2836	0.0687580437580442
2837	0.14967824967825
2838	0.173133848133848
2839	0.178571428571429
2840	0.255920205920206
2841	0.31509009009009
2842	0.241473616473617
2843	0.229054054054054
2844	0.167857142857143
2845	0.126705276705277
2846	0.0962676962676965
2847	0.121428571428571
2848	0.112580437580438
2849	0.115990990990991
2850	0.11412483912484
2851	0.131821106821107
2852	0.122972972972973
2853	0.106821106821107
2854	0.0690797940797945
2855	0.0206241956241959
2856	0.0170527670527671
2857	0.0780888030888034
2858	0.056660231660232
2859	0.0656692406692412
2860	0.0314993564993566
2861	-0.0781531531531532
2862	-0.115894465894466
2863	-0.121171171171171
2864	-0.105019305019305
2865	-0.105019305019305
2866	-0.0977155727155725
2867	-0.050965250965251
2868	-0.04009009009009
2869	-0.0902509652509653
2870	-0.117117117117117
2871	-0.12052767052767
2872	-0.127831402831403
2873	-0.142117117117117
2874	-0.16541184041184
2875	-0.199420849420849
2876	-0.206563706563706
2877	-0.201126126126126
2878	-0.213706563706564
2879	-0.219144144144144
2880	-0.159652509652509
2881	-0.148938223938224
2882	-0.125482625482625
2883	-0.152187902187902
2884	-0.148616473616473
2885	-0.168178893178893
2886	-0.202187902187902
2887	-0.264929214929215
2888	-0.232464607464607
2889	-0.268339768339768
2890	-0.264607464607464
2891	-0.244723294723295
2892	-0.268178893178893
2893	-0.282464607464607
2894	-0.278893178893179
2895	-0.332947232947233
2896	-0.332786357786358
2897	-0.226705276705276
2898	-0.210392535392535
2899	-0.221267696267696
2900	-0.248133848133848
2901	-0.242696267696268
2902	-0.235875160875161
2903	-0.237741312741313
2904	-0.257464607464607
2905	-0.232303732303732
2906	-0.194723294723295
2907	-0.194723294723295
2908	-0.209009009009009
2909	-0.203893178893179
2910	-0.159009009009009
2911	-0.140990990990991
2912	-0.164446589446589
2913	-0.171589446589446
2914	-0.108526383526383
2915	-0.0905083655083654
2916	-0.112097812097812
2917	-0.128249678249678
2918	-0.108526383526383
2919	-0.0888030888030886
2920	-0.119240669240669
2921	-0.0976512226512226
2922	-0.0616151866151866
2923	-0.0364543114543114
2924	-0.103088803088803
2925	-0.0779279279279277
2926	-0.0672136422136421
2927	-0.0383204633204631
2928	-0.0165701415701416
2929	-0.00942728442728435
2930	0.0245817245817248
2931	0.057046332046332
2932	0.0786357786357789
2933	0.0356177606177606
2934	0.0645109395109394
2935	0.0626447876447878
2936	0.057046332046332
2937	0.0391891891891892
2938	0.0036357786357788
2939	-0.0446589446589446
2940	-0.0483912483912481
2941	-0.0538288288288288
2942	-0.0949806949806948
2943	-0.122007722007722
2944	-0.107561132561132
2945	-0.1252574002574
2946	-0.132400257400257
2947	-0.128828828828829
2948	-0.159266409266409
2949	-0.177123552123552
2950	-0.18970398970399
2951	-0.18970398970399
2952	-0.162998712998713
2953	-0.172168597168597
2954	-0.197329472329472
2955	-0.226061776061776
2956	-0.188320463320463
2957	-0.202767052767052
2958	-0.202767052767052
2959	-0.242374517374517
2960	-0.202767052767052
2961	-0.19546332046332
2962	-0.211776061776062
2963	-0.168918918918919
2964	-0.212097812097812
2965	-0.221106821106821
2966	-0.275
2967	-0.284009009009009
2968	-0.311036036036036
2969	-0.302027027027027
2970	-0.332625482625483
2971	-0.320045045045045
2972	-0.296589446589446
2973	-0.343500643500643
2974	-0.318339768339768
2975	-0.260875160875161
2976	-0.284009009009009
2977	-0.278571428571429
2978	-0.249839124839125
2979	-0.238963963963964
2980	-0.271428571428571
2981	-0.262419562419562
2982	-0.302027027027027
2983	-0.347072072072072
2984	-0.312902187902188
2985	-0.31476833976834
2986	-0.307786357786358
2987	-0.323938223938224
2988	-0.381241956241956
2989	-0.343339768339768
2990	-0.343339768339768
2991	-0.309169884169884
2992	-0.323616473616473
2993	-0.312902187902188
2994	-0.356081081081081
2995	-0.334330759330759
2996	-0.334330759330759
2997	-0.364929214929215
2998	-0.379214929214929
2999	-0.450965250965251
3000	-0.445688545688546
3001	-0.474420849420849
3002	-0.436518661518661
3003	-0.456241956241956
3004	-0.461679536679537
3005	-0.483268983268983
3006	-0.537323037323037
3007	-0.567760617760617
3008	-0.609073359073359
3009	-0.583751608751608
3010	-0.632368082368082
3011	-0.643082368082368
3012	-0.627252252252252
3013	-0.650546975546975
3014	-0.691859716859717
3015	-0.693725868725869
3016	-0.679440154440154
3017	-0.670431145431145
3018	-0.652413127413127
3019	-0.654118404118404
3020	-0.652252252252252
3021	-0.628957528957529
3022	-0.637805662805663
3023	-0.628796653796654
3024	-0.619787644787644
3025	-0.657528957528957
3026	-0.653957528957529
3027	-0.670109395109395
3028	-0.693404118404118
3029	-0.678957528957529
3030	-0.644787644787645
3031	-0.637644787644787
3032	-0.626769626769627
3033	-0.61061776061776
3034	-0.581885456885457
3035	-0.578153153153153
3036	-0.570849420849421
3037	-0.570849420849421
3038	-0.590572715572715
3039	-0.572554697554697
3040	-0.543661518661519
3041	-0.518500643500643
3042	-0.437419562419562
3043	-0.421267696267696
3044	-0.385392535392535
3045	-0.399839124839125
3046	-0.392696267696268
3047	-0.432303732303732
3048	-0.453732303732304
3049	-0.441312741312741
3050	-0.426866151866152
3051	-0.43043758043758
3052	-0.431981981981982
3053	-0.469723294723295
3054	-0.469562419562419
3055	-0.42467824967825
3056	-0.476866151866152
3057	-0.509169884169884
3058	-0.51988416988417
3059	-0.537741312741313
3060	-0.528732303732304
3061	-0.474839124839125
3062	-0.476544401544401
3063	-0.467535392535392
3064	-0.460392535392535
3065	-0.471106821106821
3066	-0.469240669240669
3067	-0.469240669240669
3068	-0.463803088803089
3069	-0.483526383526383
3070	-0.469079794079794
3071	-0.456660231660232
3072	-0.45479407979408
3073	-0.442052767052767
3074	-0.413320463320463
3075	-0.382722007722008
3076	-0.370302445302445
3077	-0.359588159588159
3078	-0.390186615186615
3079	-0.356016731016731
3080	-0.332561132561132
3081	-0.282078507078507
3082	-0.274774774774775
3083	-0.240444015444015
3084	-0.218854568854569
3085	-0.238577863577864
3086	-0.216988416988417
3087	-0.236711711711712
3088	-0.272747747747748
3089	-0.271042471042471
3090	-0.26048906048906
3091	-0.2746138996139
3092	-0.233301158301158
3093	-0.21528314028314
3094	-0.197265122265122
3095	-0.184684684684685
3096	-0.159523809523809
3097	-0.18996138996139
3098	-0.166666666666667
3099	-0.186550836550836
3100	-0.190122265122265
3101	-0.253024453024453
3102	-0.267471042471042
3103	-0.289060489060489
3104	-0.319658944658945
3105	-0.328667953667954
3106	-0.360971685971686
3107	-0.348230373230373
3108	-0.353667953667954
3109	-0.353828828828829
3110	-0.375418275418275
3111	-0.382722007722008
3112	-0.409588159588159
3113	-0.432882882882883
3114	-0.412998712998713
3115	-0.445302445302445
3116	-0.477606177606177
3117	-0.492052767052767
3118	-0.502927927927928
3119	-0.502927927927928
3120	-0.51534749034749
3121	-0.473873873873874
3122	-0.486454311454311
3123	-0.484749034749035
3124	-0.455855855855856
3125	-0.439543114543115
3126	-0.442953667953668
3127	-0.442953667953668
3128	-0.437516087516088
3129	-0.491409266409266
3130	-0.509427284427284
3131	-0.54002574002574
3132	-0.554472329472329
3133	-0.563481338481338
3134	-0.574195624195624
3135	-0.58490990990991
3136	-0.579472329472329
3137	-0.545302445302445
3138	-0.528989703989704
3139	-0.523552123552123
3140	-0.505534105534105
3141	-0.483944658944659
3142	-0.498391248391248
3143	-0.514543114543115
3144	-0.489382239382239
3145	-0.471364221364221
3146	-0.476801801801802
3147	-0.478507078507078
3148	-0.474774774774775
3149	-0.45505148005148
3150	-0.462355212355212
3151	-0.47493564993565
3152	-0.46048906048906
3153	-0.501962676962677
3154	-0.487516087516087
3155	-0.496525096525097
3156	-0.510971685971686
3157	-0.530855855855856
3158	-0.509266409266409
3159	-0.491248391248391
3160	-0.485971685971686
3161	-0.482400257400257
3162	-0.500418275418275
3163	-0.498712998712999
3164	-0.496846846846847
3165	-0.428507078507078
3166	-0.408783783783784
3167	-0.389060489060489
3168	-0.38548906048906
3169	-0.38548906048906
3170	-0.387355212355212
3171	-0.374774774774775
3172	-0.347908622908623
3173	-0.326319176319176
3174	-0.357078507078507
3175	-0.321203346203346
3176	-0.328507078507078
3177	-0.315926640926641
3178	-0.283462033462033
3179	-0.283622908622908
3180	-0.287194337194337
3181	-0.306917631917632
3182	-0.301480051480051
3183	-0.287194337194337
3184	-0.271042471042471
3185	-0.281756756756757
3186	-0.281756756756757
3187	-0.244015444015444
3188	-0.253024453024453
3189	-0.18996138996139
3190	-0.171943371943372
3191	-0.152220077220077
3192	-0.128764478764479
3193	-0.132335907335907
3194	-0.128764478764479
3195	-0.130469755469755
3196	-0.132175032175032
3197	-0.110585585585586
3198	-0.0835585585585585
3199	-0.0962998712998713
3200	-0.117889317889318
3201	-0.146621621621621
3202	-0.171782496782497
3203	-0.162773487773488
3204	-0.166344916344916
3205	-0.132175032175032
3206	-0.151898326898327
3207	-0.137451737451737
3208	-0.144594594594595
3209	-0.160907335907336
3210	-0.123166023166023
3211	-0.146621621621621
3212	-0.123166023166023
3213	-0.126898326898327
3214	-0.157496782496782
3215	-0.16463963963964
3216	-0.177220077220077
3217	-0.162934362934363
3218	-0.159362934362934
3219	-0.179086229086229
3220	-0.18996138996139
3221	-0.251158301158301
3222	-0.24028314028314
3223	-0.285328185328185
3224	-0.276319176319176
3225	-0.267310167310167
3226	-0.292471042471042
3227	-0.330212355212355
3228	-0.333783783783784
3229	-0.330212355212355
3230	-0.359105534105534
3231	-0.366409266409266
3232	-0.366570141570142
3233	-0.411615186615187
3234	-0.411615186615187
3235	-0.413320463320463
3236	-0.451222651222651
3237	-0.435070785070785
3238	-0.444079794079794
3239	-0.472812097812098
3240	-0.467374517374517
3241	-0.478249678249678
3242	-0.489124839124839
3243	-0.510714285714286
3244	-0.512580437580437
3245	-0.489124839124839
3246	-0.505276705276705
3247	-0.515990990990991
3248	-0.546589446589446
3249	-0.544723294723295
3250	-0.535714285714286
3251	-0.521267696267696
3252	-0.56988416988417
3253	-0.589607464607464
3254	-0.602187902187902
3255	-0.607786357786358
3256	-0.622232947232947
3257	-0.584491634491634
3258	-0.573777348777349
3259	-0.55575933075933
3260	-0.532464607464607
3261	-0.512902187902188
3262	-0.512902187902188
3263	-0.484169884169884
3264	-0.478893178893179
3265	-0.480759330759331
3266	-0.450160875160875
3267	-0.426866151866152
3268	-0.396267696267696
3269	-0.354954954954955
3270	-0.353249678249678
3271	-0.328088803088803
3272	-0.277606177606177
3273	-0.279472329472329
3274	-0.231016731016731
3275	-0.196846846846847
3276	-0.214864864864865
3277	-0.232882882882883
3278	-0.204150579150579
3279	-0.168275418275418
3280	-0.168275418275418
3281	-0.193436293436293
3282	-0.197168597168597
3283	-0.152123552123552
3284	-0.130694980694981
3285	-0.127123552123552
3286	-0.102284427284427
3287	-0.111293436293436
3288	-0.0339446589446589
3289	-0.0249356499356498
3290	0.010939510939511
3291	0.0182432432432434
3292	0.0201093951093951
3293	0.0255469755469756
3294	0.0219755469755469
3295	0.0364221364221365
3296	0.0129665379665379
3297	0.00411840411840414
3298	-0.0229086229086227
3299	-0.0121943371943369
3300	-0.0463642213642212
3301	-0.0266409266409264
3302	-0.0446589446589446
3303	-0.0769626769626768
3304	-0.105694980694981
3305	-0.132561132561132
3306	-0.137998712998713
3307	-0.161454311454311
3308	-0.157882882882883
3309	-0.154311454311454
3310	-0.181177606177606
3311	-0.202767052767052
3312	-0.204633204633205
3313	-0.192052767052767
3314	-0.181177606177606
3315	-0.193758043758044
3316	-0.204472329472329
3317	-0.168597168597169
3318	-0.164864864864865
3319	-0.190186615186615
3320	-0.166731016731017
3321	-0.188320463320463
3322	-0.186293436293436
3323	-0.195302445302445
3324	-0.224034749034749
3325	-0.245624195624195
3326	-0.250900900900901
3327	-0.238320463320463
3328	-0.233043758043758
3329	-0.242052767052767
3330	-0.252927927927928
3331	-0.260070785070785
3332	-0.269079794079794
3333	-0.295945945945946
3334	-0.267213642213642
3335	-0.276061776061776
3336	-0.243758043758044
3337	-0.243758043758044
3338	-0.231177606177606
3339	-0.209588159588159
3340	-0.200579150579151
3341	-0.178989703989704
3342	-0.202284427284427
3343	-0.191570141570142
3344	-0.182561132561132
3345	-0.189864864864865
3346	-0.184427284427284
3347	-0.166570141570141
3348	-0.136132561132561
3349	-0.14514157014157
3350	-0.164864864864865
3351	-0.137998712998713
3352	-0.134427284427284
3353	-0.154150579150579
3354	-0.14514157014157
3355	-0.143275418275418
3356	-0.170302445302445
3357	-0.164864864864865
3358	-0.186454311454311
3359	-0.186454311454311
3360	-0.184588159588159
3361	-0.197168597168597
3362	-0.208043758043758
3363	-0.218758043758044
3364	-0.216731016731017
3365	-0.220302445302445
3366	-0.232882882882883
3367	-0.209749034749035
3368	-0.213320463320463
3369	-0.226061776061776
3370	-0.202767052767052
3371	-0.219079794079794
3372	-0.247812097812098
3373	-0.238963963963964
3374	-0.240830115830116
3375	-0.235392535392535
3376	-0.235392535392535
3377	-0.215830115830116
3378	-0.204954954954955
3379	-0.188642213642213
3380	-0.219240669240669
3381	-0.192213642213642
3382	-0.195945945945946
3383	-0.221267696267696
3384	-0.208687258687259
3385	-0.199839124839125
3386	-0.172972972972973
3387	-0.176544401544401
3388	-0.174839124839125
3389	-0.176705276705276
3390	-0.165990990990991
3391	-0.149839124839125
3392	-0.138963963963964
3393	-0.153410553410553
3394	-0.122812097812098
3395	-0.0653474903474902
3396	-0.0546332046332045
3397	-0.00074002574002574
3398	-0.0114543114543113
3399	0.0045366795366798
3400	0.0220720720720723
3401	0.093822393822394
3402	0.113706563706564
3403	0.0778314028314028
3404	0.117438867438868
3405	0.139028314028314
3406	0.130019305019305
3407	0.140733590733591
3408	0.142438867438868
3409	0.139189189189189
3410	0.101608751608752
3411	0.101608751608752
3412	0.0960102960102961
3413	0.0637065637065638
3414	0.0672779922779924
3415	0.0582689832689834
3416	0.0939832689832691
3417	0.0596525096525097
3418	0.0452059202059203
3419	0.100965250965251
3420	0.093822393822394
3421	0.0795366795366796
3422	0.0525096525096526
3423	0.050804375804376
3424	0.0292149292149294
3425	0.00762548262548279
3426	0.0111969111969114
3427	-0.0194015444015443
3428	-0.0212676962676963
3429	-0.00511583011583006
3430	-0.0428571428571428
3431	-0.0860360360360358
3432	-0.114929214929215
3433	-0.131081081081081
3434	-0.136518661518661
3435	-0.147232947232947
3436	-0.130920205920206
3437	-0.195688545688546
3438	-0.242599742599743
3439	-0.224581724581725
3440	-0.271492921492921
3441	-0.287805662805663
3442	-0.28050193050193
3443	-0.300225225225225
3444	-0.266055341055341
3445	-0.286100386100386
3446	-0.277252252252252
3447	-0.282689832689832
3448	-0.277413127413127
3449	-0.252091377091377
3450	-0.264832689832689
3451	-0.264671814671814
3452	-0.289671814671814
3453	-0.289510939510939
3454	-0.305662805662805
3455	-0.328796653796654
3456	-0.312644787644787
3457	-0.307046332046332
3458	-0.265572715572715
3459	-0.30518018018018
3460	-0.305019305019305
3461	-0.252831402831403
3462	-0.313867438867439
3463	-0.308429858429858
3464	-0.30485842985843
3465	-0.301126126126126
3466	-0.292117117117117
3467	-0.292117117117117
3468	-0.247072072072072
3469	-0.241634491634491
3470	-0.275965250965251
3471	-0.279536679536679
3472	-0.317117117117117
3473	-0.331402831402831
3474	-0.3006435006435
3475	-0.291634491634491
3476	-0.262741312741313
3477	-0.260714285714286
3478	-0.273294723294723
3479	-0.246267696267696
3480	-0.285714285714286
3481	-0.285392535392535
3482	-0.261936936936937
3483	-0.269079794079794
3484	-0.261615186615186
3485	-0.24546332046332
3486	-0.249195624195624
3487	-0.236776061776062
3488	-0.23490990990991
3489	-0.21502574002574
3490	-0.153828828828829
3491	-0.139543114543115
3492	-0.182722007722008
3493	-0.177445302445302
3494	-0.199195624195624
3495	-0.175900900900901
3496	-0.161615186615186
3497	-0.190508365508365
3498	-0.149195624195624
3499	-0.156499356499356
3500	-0.152767052767052
3501	-0.16534749034749
3502	-0.188803088803089
3503	-0.181660231660231
3504	-0.212258687258687
3505	-0.224839124839125
3506	-0.181499356499356
3507	-0.21023166023166
3508	-0.201383526383526
3509	-0.190669240669241
3510	-0.239446589446589
3511	-0.230598455598455
3512	-0.228732303732304
3513	-0.182142857142857
3514	-0.182303732303732
3515	-0.159009009009009
3516	-0.166312741312741
3517	-0.168178893178893
3518	-0.171750321750322
3519	-0.112741312741313
3520	-0.112741312741313
3521	-0.13075933075933
3522	-0.13075933075933
3523	-0.148777348777348
3524	-0.152509652509652
3525	-0.163384813384813
3526	-0.168822393822394
3527	-0.163545688545688
3528	-0.123938223938224
3529	-0.168983268983269
3530	-0.125804375804376
3531	-0.123938223938224
3532	-0.136518661518661
3533	-0.181402831402831
3534	-0.168822393822394
3535	-0.157786357786358
3536	-0.175804375804376
3537	-0.16509009009009
3538	-0.150643500643501
3539	-0.127348777348777
3540	-0.114607464607464
3541	-0.0913127413127413
3542	-0.100482625482625
3543	-0.0879021879021876
3544	-0.0554375804375803
3545	-0.0732947232947232
3546	0.000482625482625565
3547	-0.0083655083655082
3548	-0.0083655083655082
3549	-0.0442406692406691
3550	-0.0333655083655082
3551	-0.112419562419562
3552	-0.0728120978120977
3553	-0.051222651222651
3554	-0.0386422136422134
3555	-0.0706241956241954
3556	-0.113803088803089
3557	-0.10479407979408
3558	-0.113642213642213
3559	-0.118918918918919
3560	-0.0973294723294723
3561	-0.0755791505791505
3562	-0.0793114543114544
3563	-0.095302445302445
3564	-0.161776061776062
3565	-0.109588159588159
3566	-0.152606177606177
3567	-0.14546332046332
3568	-0.141891891891892
3569	-0.0932754182754181
3570	-0.107722007722008
3571	-0.127606177606177
3572	-0.124195624195624
3573	-0.143918918918919
3574	-0.111615186615187
3575	-0.176222651222651
3576	-0.197812097812098
3577	-0.212097812097812
3578	-0.178088803088803
3579	-0.160070785070785
3580	-0.219562419562419
3581	-0.21055341055341
3582	-0.219401544401544
3583	-0.219562419562419
3584	-0.226866151866152
3585	-0.214285714285714
3586	-0.221428571428571
3587	-0.206981981981982
3588	-0.219562419562419
3589	-0.207142857142857
3590	-0.210714285714286
3591	-0.234169884169884
3592	-0.201705276705276
3593	-0.261036036036036
3594	-0.277187902187902
3595	-0.304214929214929
3596	-0.327509652509652
3597	-0.354536679536679
3598	-0.38497425997426
3599	-0.388706563706564
3600	-0.361679536679537
3601	-0.349099099099099
3602	-0.343661518661519
3603	-0.361679536679537
3604	-0.358108108108108
3605	-0.377992277992278
3606	-0.368983268983269
3607	-0.329536679536679
3608	-0.313223938223938
3609	-0.293500643500643
3610	-0.304214929214929
3611	-0.279054054054054
3612	-0.250482625482625
3613	-0.24520592020592
3614	-0.257464607464607
3615	-0.255759330759331
3616	-0.239446589446589
3617	-0.20543758043758
3618	-0.228893178893179
3619	-0.261196911196911
3620	-0.268339768339768
3621	-0.325965250965251
3622	-0.354697554697554
3623	-0.324259974259974
3624	-0.29552767052767
3625	-0.344144144144144
3626	-0.340572715572716
3627	-0.317438867438867
3628	-0.328314028314028
3629	-0.272554697554697
3630	-0.237001287001287
3631	-0.181402831402831
3632	-0.116956241956242
3633	-0.0810810810810809
3634	-0.072072072072072
3635	-0.0647683397683396
3636	-0.0307593307593303
3637	-0.02532175032175
3638	-0.0506435006435006
3639	-0.0254826254826253
3640	-0.0275096525096523
3641	0.0156692406692409
3642	0.0262226512226515
3643	0.0335263835263837
3644	-0.00624195624195578
3645	-0.0135456885456884
3646	0.0240347490347492
3647	0.0238738738738742
3648	-0.00112612612612573
3649	-0.0210102960102958
3650	-0.0337516087516085
3651	-0.0408944658944654
3652	0.0112934362934363
3653	0.00772200772200771
3654	0.014864864864865
3655	0.0435971685971686
3656	0.0561776061776065
3657	0.117213642213642
3658	0.161936936936937
3659	0.172490347490348
3660	0.14546332046332
3661	0.177927927927928
3662	0.206499356499357
3663	0.204954954954955
3664	0.249839124839125
3665	0.258848133848134
3666	0.271750321750322
3667	0.291473616473617
3668	0.237741312741313
3669	0.212580437580438
3670	0.235875160875161
3671	0.255437580437581
3672	0.277027027027027
3673	0.259009009009009
3674	0.287580437580438
3675	0.262419562419563
3676	0.273294723294724
3677	0.259009009009009
3678	0.237741312741313
3679	0.226866151866152
3680	0.232464607464608
3681	0.270366795366795
3682	0.263063063063063
3683	0.30997425997426
3684	0.33497425997426
3685	0.367438867438868
3686	0.392599742599743
3687	0.329697554697555
3688	0.299099099099099
3689	0.293661518661519
3690	0.338706563706564
3691	0.317117117117117
3692	0.329697554697555
3693	0.324420849420849
3694	0.317438867438868
3695	0.288867438867439
3696	0.281724581724582
3697	0.256563706563707
3698	0.227992277992278
3699	0.238706563706564
3700	0.182947232947233
3701	0.19009009009009
3702	0.193661518661519
3703	0.148938223938224
3704	0.13433075933076
3705	0.132464607464608
3706	0.13433075933076
3707	0.0462676962676964
3708	0.015830115830116
3709	0.0212676962676965
3710	0.0161518661518664
3711	0.00900900900900925
3712	-0.0105534105534105
3713	-0.0195624195624193
3714	-0.0394465894465893
3715	-0.0627413127413127
3716	0.0127413127413128
3717	0.00916988416988418
3718	-0.0176962676962676
3719	-0.0590090090090089
3720	-0.0948841698841698
3721	-0.114607464607464
3722	-0.184652509652509
3723	-0.10032175032175
3724	-0.107464607464607
3725	-0.103732303732303
3726	-0.121750321750322
3727	-0.107142857142857
3728	-0.112580437580437
3729	-0.137741312741313
3730	-0.157464607464607
3731	-0.141312741312741
3732	-0.132303732303732
3733	-0.135875160875161
3734	-0.134009009009009
3735	-0.139446589446589
3736	-0.134169884169884
3737	-0.163063063063063
3738	-0.15575933075933
3739	-0.161036036036036
3740	-0.153571428571429
3741	-0.153410553410553
3742	-0.191151866151866
3743	-0.13523166023166
3744	-0.196428571428572
3745	-0.190990990990991
3746	-0.189285714285714
3747	-0.163963963963964
3748	-0.156821106821107
3749	-0.156821106821107
3750	-0.133365508365508
3751	-0.165830115830116
3752	-0.201705276705276
3753	-0.234169884169884
3754	-0.228732303732304
3755	-0.210714285714286
3756	-0.17467824967825
3757	-0.163963963963964
3758	-0.153088803088803
3759	-0.154633204633205
3760	-0.142052767052767
3761	-0.194240669240669
3762	-0.196106821106821
3763	-0.225
3764	-0.232142857142857
3765	-0.257303732303732
3766	-0.271750321750322
3767	-0.273455598455598
3768	-0.260875160875161
3769	-0.221428571428571
3770	-0.284491634491634
3771	-0.309652509652509
3772	-0.313063063063063
3773	-0.343500643500643
3774	-0.363223938223938
3775	-0.399259974259974
3776	-0.400965250965251
3777	-0.39552767052767
3778	-0.370366795366795
3779	-0.379375804375804
3780	-0.377509652509652
3781	-0.40997425997426
3782	-0.445849420849421
3783	-0.458590733590733
3784	-0.541537966537966
3785	-0.592020592020592
3786	-0.588288288288288
3787	-0.56483268983269
3788	-0.599002574002574
3789	-0.620592020592021
3790	-0.609877734877735
3791	-0.611743886743887
3792	-0.635199485199485
3793	-0.66036036036036
3794	-0.622619047619048
3795	-0.672940797940798
3796	-0.683655083655083
3797	-0.638610038610038
3798	-0.643886743886744
3799	-0.618725868725869
3800	-0.640315315315315
3801	-0.607850707850708
3802	-0.60070785070785
3803	-0.602413127413127
3804	-0.618564993564993
3805	-0.64559202059202
3806	-0.611261261261261
3807	-0.582368082368082
3808	-0.539189189189189
3809	-0.519465894465894
3810	-0.524903474903475
3811	-0.524903474903475
3812	-0.526769626769627
3813	-0.539510939510939
3814	-0.525225225225225
3815	-0.534395109395109
3816	-0.473037323037323
3817	-0.481885456885457
3818	-0.474420849420849
3819	-0.449259974259974
3820	-0.362741312741313
3821	-0.310392535392535
3822	-0.297812097812098
3823	-0.258204633204633
3824	-0.234749034749035
3825	-0.203989703989704
3826	-0.218275418275418
3827	-0.18970398970399
3828	-0.160810810810811
3829	-0.194980694980695
3830	-0.209427284427284
3831	-0.178828828828829
3832	-0.187837837837838
3833	-0.178828828828829
3834	-0.180694980694981
3835	-0.191570141570142
3836	-0.180855855855856
3837	-0.180855855855856
3838	-0.157400257400258
3839	-0.14481981981982
3840	-0.169980694980695
3841	-0.194980694980695
3842	-0.178828828828829
3843	-0.18970398970399
3844	-0.214864864864865
3845	-0.207400257400257
3846	-0.216570141570141
3847	-0.227445302445302
3848	-0.193275418275418
3849	-0.171685971685972
3850	-0.230855855855856
3851	-0.227123552123552
3852	-0.234427284427284
3853	-0.227284427284427
3854	-0.252606177606177
3855	-0.263481338481338
3856	-0.301222651222651
3857	-0.306660231660231
3858	-0.306821106821107
3859	-0.321267696267696
3860	-0.341151866151866
3861	-0.357464607464607
3862	-0.37532175032175
3863	-0.414607464607464
3864	-0.443339768339768
3865	-0.432464607464607
3866	-0.448616473616473
3867	-0.454214929214929
3868	-0.432786357786358
3869	-0.447232947232947
3870	-0.427348777348777
3871	-0.403893178893179
3872	-0.436036036036036
3873	-0.437902187902188
3874	-0.457625482625482
3875	-0.454054054054054
3876	-0.418018018018018
3877	-0.414446589446589
3878	-0.38043758043758
3879	-0.351705276705276
3880	-0.317535392535393
3881	-0.299839124839125
3882	-0.271106821106821
3883	-0.200900900900901
3884	-0.188320463320463
3885	-0.208204633204633
3886	-0.129311454311454
3887	-0.10057915057915
3888	-0.0449806949806949
3889	-0.00196267696267671
3890	0.0412162162162163
3891	0.0806628056628058
3892	0.12027027027027
3893	0.123519948519949
3894	0.111100386100386
3895	0.134395109395109
3896	0.166698841698842
3897	0.191859716859717
3898	0.211583011583012
3899	0.227734877734878
3900	0.261743886743887
3901	0.304761904761905
3902	0.338770913770914
3903	0.367503217503218
3904	0.365637065637066
3905	0.378056628056628
3906	0.349163449163449
3907	0.345592020592021
3908	0.388610038610039
3909	0.408333333333333
3910	0.417342342342342
3911	0.41003861003861
3912	0.402734877734878
3913	0.461904761904762
3914	0.427734877734878
3915	0.395270270270271
3916	0.398680823680824
3917	0.382368082368083
3918	0.373519948519949
3919	0.357207207207207
3920	0.346332046332046
3921	0.380501930501931
3922	0.328474903474904
3923	0.337323037323038
3924	0.28497425997426
3925	0.259813384813385
3926	0.203893178893179
3927	0.169723294723295
3928	0.14967824967825
3929	0.131981981981982
3930	0.158687258687259
3931	0.199839124839125
3932	0.2
3933	0.205276705276705
3934	0.235714285714286
3935	0.235553410553411
3936	0.235553410553411
3937	0.23912483912484
3938	0.201383526383527
3939	0.212258687258687
3940	0.169079794079794
3941	0.17979407979408
3942	0.202927927927928
3943	0.24424066924067
3944	0.271106821106821
3945	0.285392535392536
3946	0.308526383526384
3947	0.353249678249679
3948	0.383848133848134
3949	0.373133848133848
3950	0.373133848133848
3951	0.402027027027027
3952	0.375
3953	0.366312741312741
3954	0.382303732303732
3955	0.401866151866152
3956	0.410875160875161
3957	0.387419562419563
3958	0.414285714285714
3959	0.408848133848134
3960	0.428893178893179
3961	0.432303732303732
3962	0.504214929214929
3963	0.536518661518662
3964	0.552831402831403
3965	0.590411840411841
3966	0.617277992277992
3967	0.574259974259974
3968	0.583108108108108
3969	0.55965250965251
3970	0.534491634491635
3971	0.549099099099099
3972	0.513223938223938
3973	0.489929214929215
3974	0.538545688545689
3975	0.491956241956242
3976	0.53529601029601
3977	0.495849420849421
3978	0.501126126126127
3979	0.477831402831403
3980	0.450804375804376
3981	0.441795366795367
3982	0.42020592020592
3983	0.420366795366796
3984	0.378893178893179
3985	0.382464607464608
3986	0.36988416988417
3987	0.359169884169884
3988	0.380759330759331
3989	0.398616473616474
3990	0.412902187902188
3991	0.36988416988417
3992	0.373455598455599
3993	0.389607464607465
3994	0.416634491634492
3995	0.409491634491635
3996	0.396750321750322
3997	0.378893178893179
3998	0.359169884169884
3999	0.334169884169884
4000	0.352187902187902
4001	0.348616473616474
4002	0.302027027027027
4003	0.280598455598456
4004	0.260875160875161
4005	0.293500643500644
4006	0.300643500643501
4007	0.307786357786358
4008	0.33465250965251
4009	0.347232947232948
4010	0.341795366795367
4011	0.364929214929215
4012	0.395366795366795
4013	0.388384813384814
4014	0.354375804375805
4015	0.336196911196911
4016	0.347072072072072
4017	0.332786357786358
4018	0.354375804375805
4019	0.311196911196912
4020	0.347232947232948
4021	0.320366795366795
4022	0.282786357786358
4023	0.302348777348778
4024	0.280920205920206
4025	0.270045045045045
4026	0.241473616473617
4027	0.252509652509653
4028	0.227348777348778
4029	0.182625482625483
4030	0.125321750321751
4031	0.12020592020592
4032	0.08976833976834
4033	0.0989382239382239
4034	0.089929214929215
4035	0.102509652509652
4036	0.0843307593307595
4037	0.0861969111969114
4038	0.0681788931788934
4039	0.0771879021879024
4040	0.0304375804375806
4041	-0.0200450450450447
4042	-0.0288931788931788
4043	-0.0685006435006434
4044	-0.129697554697554
4045	-0.133268983268983
4046	-0.136679536679537
4047	-0.14009009009009
4048	-0.177670527670527
4049	-0.136518661518661
4050	-0.116473616473616
4051	-0.111036036036036
4052	-0.105759330759331
4053	-0.150804375804376
4054	-0.190250965250965
4055	-0.186518661518661
4056	-0.199099099099099
4057	-0.188384813384813
4058	-0.138223938223938
4059	-0.143500643500643
4060	-0.138063063063063
4061	-0.132786357786358
4062	-0.143661518661519
4063	-0.127670527670527
4064	-0.124099099099099
4065	-0.116956241956242
4066	-0.108108108108108
4067	-0.110135135135135
4068	-0.110135135135135
4069	-0.0870012870012868
4070	-0.0796975546975545
4071	-0.0905727155727154
4072	-0.126287001287001
4073	-0.189350064350064
4074	-0.169465894465894
4075	-0.174903474903475
4076	-0.127992277992278
4077	-0.081241956241956
4078	-0.0848133848133843
4079	-0.0470720720720719
4080	-0.0164736164736161
4081	-0.0129021879021876
4082	-0.0166344916344914
4083	-0.0348133848133845
4084	-0.00608108108108096
4085	-0.025965250965251
4086	-0.0150900900900901
4087	-0.04009009009009
4088	-0.038223938223938
4089	0.0175353925353927
4090	0.0586872586872587
4091	0.0838481338481341
4092	0.0981338481338483
4093	0.0964285714285715
4094	0.0622586872586874
4095	0.0172136422136424
4096	0.0350707850707852
4097	0.0370978120978123
4098	0.0515444015444015
4099	0.0481338481338482
4100	0.0195624195624198
4101	0.00884813384813388
4102	-0.0163127413127411
4103	-0.00714285714285712
4104	0.0270270270270271
4105	-0.00341055341055341
4106	-0.00698198198198186
4107	0.00559845559845562
4108	0.0540540540540542
4109	0.0667953667953669
4110	0.0254826254826256
4111	0.0469111969111971
4112	0.0448841698841699
4113	0.0486164736164737
4114	0.0537323037323039
4115	0.0302767052767055
4116	0.0843307593307595
4117	0.0680180180180181
4118	0.0481338481338482
4119	0.0518661518661522
4120	0.0175353925353927
4121	0.0195624195624198
4122	0.00511583011583028
4123	0.0482947232947236
4124	0.0555984555984558
4125	0.0341698841698842
4126	0.0127413127413128
4127	-0.00698198198198186
4128	-0.0734555984555983
4129	-0.107786357786358
4130	-0.0753217503217503
4131	-0.0142857142857142
4132	-0.0304375804375804
4133	-0.0178571428571429
4134	-0.0555984555984556
4135	-0.043178893178893
4136	-0.052348777348777
4137	-0.0543758043758042
4138	-0.0273487773487771
4139	-0.0727155727155726
4140	-0.0815637065637065
4141	-0.103153153153153
4142	-0.108590733590733
4143	-0.171492921492921
4144	-0.187644787644787
4145	-0.164350064350064
4146	-0.126608751608751
4147	-0.148037323037323
4148	-0.180341055341055
4149	-0.189350064350064
4150	-0.192599742599743
4151	-0.20518018018018
4152	-0.260939510939511
4153	-0.266216216216216
4154	-0.253635778635778
4155	-0.273519948519948
4156	-0.248359073359073
4157	-0.26451093951094
4158	-0.25550193050193
4159	-0.280662805662805
4160	-0.367020592020592
4161	-0.341859716859717
4162	-0.341859716859717
4163	-0.342020592020592
4164	-0.316859716859717
4165	-0.273680823680824
4166	-0.320431145431145
4167	-0.354440154440154
4168	-0.381467181467181
4169	-0.43536036036036
4170	-0.413610038610038
4171	-0.462065637065637
4172	-0.429601029601029
4173	-0.429440154440154
4174	-0.440315315315315
4175	-0.443564993564993
4176	-0.458011583011583
4177	-0.454279279279279
4178	-0.474002574002574
4179	-0.446975546975547
4180	-0.459555984555984
4181	-0.43983268983269
4182	-0.456145431145431
4183	-0.463288288288288
4184	-0.42027027027027
4185	-0.402252252252252
4186	-0.389671814671814
4187	-0.377091377091377
4188	-0.296332046332046
4189	-0.249581724581725
4190	-0.249581724581725
4191	-0.220688545688545
4192	-0.238545688545688
4193	-0.211679536679537
4194	-0.238867438867439
4195	-0.244465894465894
4196	-0.19041184041184
4197	-0.203153153153153
4198	-0.230019305019305
4199	-0.22985842985843
4200	-0.240572715572715
4201	-0.272876447876447
4202	-0.276447876447876
4203	-0.265572715572715
4204	-0.216956241956242
4205	-0.189929214929215
4206	-0.164929214929215
4207	-0.1756435006435
4208	-0.189929214929215
4209	-0.213223938223938
4210	-0.188063063063063
4211	-0.141312741312741
4212	-0.141312741312741
4213	-0.112580437580437
4214	-0.0821428571428571
4215	-0.0695624195624193
4216	-0.0821428571428571
4217	-0.132303732303732
4218	-0.0836872586872586
4219	-0.0712676962676961
4220	-0.108848133848134
4221	-0.112580437580437
4222	-0.103732303732303
4223	-0.110875160875161
4224	-0.141312741312741
4225	-0.179214929214929
4226	-0.166795366795367
4227	-0.145366795366795
4228	-0.129214929214929
4229	-0.134491634491634
4230	-0.118178893178893
4231	-0.125160875160875
4232	-0.12532175032175
4233	-0.10543758043758
4234	-0.064124839124839
4235	-0.0714285714285714
4236	0.00202702702702717
4237	0.0521879021879023
4238	0.0935006435006436
4239	0.113063063063063
4240	0.109330759330759
4241	0.123294723294724
4242	0.063963963963964
4243	0.108848133848134
4244	0.139124839124839
4245	0.149839124839125
4246	0.164124839124839
4247	0.142535392535393
4248	0.0903474903474906
4249	0.0741956241956245
4250	0.0672136422136425
4251	0.0636422136422137
4252	0.0762226512226516
4253	0.0923745173745174
4254	0.0690797940797945
4255	0.0422136422136423
4256	0.0638030888030889
4257	0.0478120978120982
4258	0.0603925353925356
4259	0.0532496782496785
4260	0.0370978120978123
4261	0.0372586872586873
4262	0.00341055341055352
4263	-0.0268661518661518
4264	-0.0573037323037322
4265	-0.0914736164736162
4266	-0.0646074646074645
4267	-0.0646074646074645
4268	-0.0518661518661517
4269	-0.0642857142857143
4270	-0.109169884169884
4271	-0.127027027027027
4272	-0.16988416988417
4273	-0.189446589446589
4274	-0.205598455598456
4275	-0.254214929214929
4276	-0.273938223938224
4277	-0.298777348777349
4278	-0.302348777348777
4279	-0.307625482625483
4280	-0.291312741312741
4281	-0.273455598455598
4282	-0.284009009009009
4283	-0.269562419562419
4284	-0.237097812097812
4285	-0.219240669240669
4286	-0.217535392535392
4287	-0.260714285714286
4288	-0.256981981981982
4289	-0.229954954954955
4290	-0.265990990990991
4291	-0.249839124839125
4292	-0.248133848133848
4293	-0.235714285714286
4294	-0.259169884169884
4295	-0.241312741312741
4296	-0.250482625482625
4297	-0.228893178893179
4298	-0.234330759330759
4299	-0.252509652509652
4300	-0.231081081081081
4301	-0.225804375804376
4302	-0.254536679536679
4303	-0.256402831402831
4304	-0.281563706563706
4305	-0.297876447876448
4306	-0.294305019305019
4307	-0.262001287001287
4308	-0.249581724581725
4309	-0.303635778635779
4310	-0.280341055341055
4311	-0.210135135135135
4312	-0.215572715572715
4313	-0.193983268983269
4314	-0.166956241956242
4315	-0.129375804375804
4316	-0.12052767052767
4317	-0.100804375804376
4318	-0.0865186615186615
4319	-0.0776705276705274
4320	-0.0346525096525094
4321	-0.0290540540540538
4322	-0.0239382239382238
4323	0.0119369369369371
4324	0.00633848133848147
4325	-0.00997425997425982
4326	0.0117760617760621
4327	0.0243564993564995
4328	-0.00624195624195578
4329	-0.0295366795366796
4330	-0.096010296010296
4331	-0.144465894465894
4332	-0.151447876447876
4333	-0.158590733590733
4334	-0.11541184041184
4335	-0.113545688545688
4336	-0.100965250965251
4337	-0.0829472329472329
4338	-0.0577863577863575
4339	-0.0326254826254826
4340	-0.0164736164736161
4341	-0.0200450450450447
4342	-0.0397683397683395
4343	-0.0361969111969112
4344	-0.0360360360360359
4345	-0.0232947232947232
4346	-0.0465894465894464
4347	-0.10032175032175
4348	-0.0605534105534105
4349	-0.0353925353925353
4350	-0.00666023166023166
4351	-0.0280888030888029
4352	-0.0675353925353923
4353	-0.101544401544401
4354	-0.101705276705276
4355	-0.114285714285714
4356	-0.193339768339768
4357	-0.207947232947233
4358	-0.184491634491634
4359	-0.175482625482625
4360	-0.177187902187902
4361	-0.196911196911197
4362	-0.272554697554697
4363	-0.276126126126126
4364	-0.247393822393822
4365	-0.247393822393822
4366	-0.197072072072072
4367	-0.130598455598455
4368	-0.141634491634491
4369	-0.163384813384813
4370	-0.161679536679537
4371	-0.122232947232947
4372	-0.176287001287001
4373	-0.176126126126126
4374	-0.194144144144144
4375	-0.194144144144144
4376	-0.169144144144144
4377	-0.138706563706564
4378	-0.0938223938223937
4379	-0.0992599742599742
4380	-0.138867438867439
4381	-0.12985842985843
4382	-0.110135135135135
4383	-0.10485842985843
4384	-0.106724581724582
4385	-0.132046332046332
4386	-0.141055341055341
4387	-0.159073359073359
4388	-0.13561776061776
4389	-0.103474903474903
4390	-0.114189189189189
4391	-0.107046332046332
4392	-0.0296975546975544
4393	-0.00981338481338434
4394	-0.067277992277992
4395	-0.0781531531531532
4396	-0.0944658944658943
4397	-0.033268983268983
4398	0.0384813384813385
4399	0.0597490347490348
4400	0.0364543114543114
4401	0.0471685971685976
4402	-0.00331402831402827
4403	-0.0266087516087514
4404	0.0328828828828831
4405	0.0527670527670527
4406	0.0456241956241956
4407	0.00617760617760621
4408	0.0529279279279282
4409	0.0491956241956244
4410	0.0690797940797945
4411	0.106660231660232
4412	0.0706241956241955
4413	0.0741956241956245
4414	0.0473294723294726
4415	0.0474903474903476
4416	0.0474903474903476
4417	0.0797940797940799
4418	0.0456241956241956
4419	0.0833655083655085
4420	0.0636422136422137
4421	0.0474903474903476
4422	0.0474903474903476
4423	0.014864864864865
4424	-0.0354568854568855
4425	-0.0696267696267694
4426	-0.0696267696267694
4427	-0.0230373230373226
4428	-0.0536357786357786
4429	-0.0374839124839124
4430	-0.00859073359073337
4431	-0.030341055341055
4432	0.0344272844272846
4433	0.0306949806949812
4434	0.0397039897039899
4435	0.0397039897039899
4436	0.0703024453024454
4437	0.0810167310167311
4438	0.0920527670527671
4439	0.111776061776062
4440	0.0631595881595881
4441	0.0522844272844274
4442	0.0431145431145432
4443	0.0285070785070789
4444	0.0160875160875165
4445	0.00148005148005192
4446	-0.000225225225225278
4447	-0.0665379665379664
4448	-0.0573680823680822
4449	-0.0861003861003857
4450	-0.0520913770913769
4451	-0.089993564993565
4452	-0.0505469755469754
4453	-0.0343951093951091
4454	-0.0218146718146714
4455	-0.0308236808236806
4456	-0.0401544401544398
4457	-0.00427927927927918
4458	-0.0222972972972972
4459	-0.00955598455598428
4460	-0.0168597168597167
4461	-0.00768983268983248
4462	0.00286357786357816
4463	-0.0490025740025739
4464	-0.0455920205920204
4465	-0.0348777348777347
4466	-0.0226190476190475
4467	0.0154440154440154
4468	-0.00955598455598428
4469	-0.0381274131274132
4470	-0.0774131274131271
4471	-0.127413127413127
4472	-0.111261261261261
4473	-0.1003861003861
4474	-0.0555019305019304
4475	-0.0733590733590732
4476	-0.0551801801801797
4477	-0.0533140283140283
4478	-0.0999034749034746
4479	-0.0708494208494208
4480	-0.108590733590733
4481	-0.121010296010296
4482	-0.173198198198198
4483	-0.171332046332046
4484	-0.187483912483912
4485	-0.153314028314028
4486	-0.169465894465894
4487	-0.147715572715572
4488	-0.165572715572715
4489	-0.214028314028314
4490	-0.226608751608751
4491	-0.27506435006435
4492	-0.26029601029601
4493	-0.296010296010296
4494	-0.288867438867439
4495	-0.285135135135135
4496	-0.23465250965251
4497	-0.211196911196911
4498	-0.227027027027027
4499	-0.255759330759331
4500	-0.273455598455598
4501	-0.341795366795366
4502	-0.348777348777349
4503	-0.352348777348777
4504	-0.373938223938224
4505	-0.361357786357786
4506	-0.323616473616473
4507	-0.352509652509652
4508	-0.375804375804376
4509	-0.438706563706564
4510	-0.431563706563707
4511	-0.456885456885457
4512	-0.469626769626769
4513	-0.510939510939511
4514	-0.473037323037323
4515	-0.498359073359073
4516	-0.464350064350064
4517	-0.41029601029601
4518	-0.34041184041184
4519	-0.300965250965251
4520	-0.292117117117117
4521	-0.317277992277992
4522	-0.304697554697555
4523	-0.272554697554697
4524	-0.267277992277992
4525	-0.22953667953668
4526	-0.198938223938224
4527	-0.159491634491634
4528	-0.118339768339768
4529	-0.0986164736164734
4530	-0.0823037323037321
4531	-0.0715894465894464
4532	-0.122072072072072
4533	-0.127509652509652
4534	-0.104214929214929
4535	-0.0773487773487771
4536	-0.0414736164736162
4537	0.0394465894465894
4538	0.0161518661518664
4539	0.0125804375804378
4540	0.0375804375804379
4541	0.0409909909909911
4542	0.0248391248391251
4543	0.0517052767052768
4544	0.0642857142857143
4545	0.112902187902188
4546	0.127187902187902
4547	0.107464607464608
4548	0.141634491634492
4549	0.186518661518662
4550	0.175482625482626
4551	0.20421492921493
4552	0.18433075933076
4553	0.153732303732304
4554	0.127027027027027
4555	0.135875160875161
4556	0.112419562419563
4557	0.0564993564993566
4558	0.0724903474903476
4559	0.0456241956241956
4560	0.00601673101673139
4561	0.00601673101673139
4562	-0.0155727155727154
4563	0.0220077220077222
4564	0.00398970398970411
4565	0.0291505791505795
4566	-0.014350064350064
4567	0.0143822393822395
4568	0.0701415701415704
4569	0.0555341055341061
4570	0.0698198198198201
4571	0.051801801801802
4572	0.09481981981982
4573	0.0837837837837838
4574	0.0999356499356501
4575	0.121364221364221
4576	0.119658944658945
4577	0.121364221364221
4578	0.114060489060489
4579	0.153828828828829
4580	0.153667953667954
4581	0.144337194337194
4582	0.15505148005148
4583	0.217953667953668
4584	0.210810810810811
4585	0.185489060489061
4586	0.214221364221364
4587	0.225096525096525
4588	0.277284427284427
4589	0.306016731016731
4590	0.311132561132561
4591	0.293436293436294
4592	0.347490347490348
4593	0.417696267696268
4594	0.381821106821107
4595	0.381821106821107
4596	0.453732303732304
4597	0.446428571428571
4598	0.439285714285714
4599	0.383687258687259
4600	0.367535392535393
4601	0.29002574002574
4602	0.335231660231661
4603	0.301061776061776
4604	0.311776061776062
4605	0.328088803088803
4606	0.265186615186615
4607	0.294079794079794
4608	0.218758043758044
4609	0.204633204633205
4610	0.220785070785071
4611	0.201061776061776
4612	0.210070785070785
4613	0.167052767052767
4614	0.154311454311455
4615	0.146846846846847
4616	0.123552123552124
4617	0.118436293436293
4618	0.0754182754182755
4619	0.0664092664092668
4620	0.0502574002574003
4621	0.118436293436293
4622	0.150740025740026
4623	0.186615186615187
4624	0.184749034749035
4625	0.206016731016731
4626	0.199034749034749
4627	0.220302445302446
4628	0.214864864864865
4629	0.198712998712999
4630	0.231177606177606
4631	0.245463320463321
4632	0.241731016731017
4633	0.257882882882883
4634	0.290347490347491
4635	0.338803088803089
4636	0.349517374517375
4637	0.378410553410554
4638	0.340508365508366
4639	0.333365508365509
4640	0.340669240669241
4641	0.277767052767053
4642	0.290347490347491
4643	0.252284427284428
4644	0.327606177606178
4645	0.347168597168597
4646	0.320302445302445
4647	0.31470398970399
4648	0.283944658944659
4649	0.312837837837838
4650	0.332882882882883
4651	0.327767052767053
4652	0.378088803088803
4653	0.388963963963964
4654	0.394401544401545
4655	0.397972972972973
4656	0.383687258687259
4657	0.378571428571429
4658	0.360714285714286
4659	0.317535392535393
4660	0.296106821106821
4661	0.28523166023166
4662	0.288803088803089
4663	0.276383526383527
4664	0.269240669240669
4665	0.238803088803089
4666	0.215347490347491
4667	0.238642213642214
4668	0.22979407979408
4669	0.190186615186616
4670	0.161293436293436
4671	0.152445302445303
4672	0.0987129987129991
4673	0.116731016731017
4674	0.116891891891892
4675	0.170785070785071
4676	0.116731016731017
4677	0.192213642213642
4678	0.20479407979408
4679	0.208526383526384
4680	0.169079794079794
4681	0.181660231660232
4682	0.186936936936937
4683	0.162097812097812
4684	0.212580437580438
4685	0.241312741312741
4686	0.226866151866152
4687	0.24456241956242
4688	0.228410553410554
4689	0.215830115830116
4690	0.226705276705277
4691	0.233848133848134
4692	0.262419562419563
4693	0.235553410553411
4694	0.212258687258687
4695	0.198133848133848
4696	0.19456241956242
4697	0.155276705276706
4698	0.176866151866152
4699	0.182142857142857
4700	0.146267696267697
4701	0.180276705276705
4702	0.194723294723295
4703	0.155276705276706
4704	0.165990990990991
4705	0.144401544401545
4706	0.142535392535393
4707	0.126222651222651
4708	0.145945945945946
4709	0.131660231660232
4710	0.118918918918919
4711	0.0793114543114544
4712	0.100900900900901
4713	0.0847490347490349
4714	0.057882882882883
4715	0.0650257400257401
4716	0.0507400257400259
4717	-0.00299227799227775
4718	-0.0118404118404116
4719	0.0168918918918921
4720	-0.0171171171171172
4721	-0.103474903474903
4722	-0.0999034749034746
4723	-0.121332046332046
4724	-0.15550193050193
4725	-0.155662805662806
4726	-0.148519948519948
4727	-0.187966537966538
4728	-0.221975546975547
4729	-0.23471685971686
4730	-0.243725868725869
4731	-0.261904761904762
4732	-0.26003861003861
4733	-0.322940797940798
4734	-0.353539253539253
4735	-0.394691119691119
4736	-0.374967824967825
4737	-0.383815958815959
4738	-0.372940797940798
4739	-0.387226512226512
4740	-0.440958815958816
4741	-0.387065637065637
4742	-0.344047619047619
4743	-0.354761904761905
4744	-0.338770913770914
4745	-0.349646074646074
4746	-0.302734877734878
4747	-0.277574002574002
4748	-0.309877734877735
4749	-0.329601029601029
4750	-0.309877734877735
4751	-0.334877734877735
4752	-0.316859716859717
4753	-0.313127413127413
4754	-0.350868725868726
4755	-0.354440154440154
4756	-0.36547619047619
4757	-0.286422136422136
4758	-0.298841698841699
4759	-0.288127413127413
4760	-0.266698841698842
4761	-0.248680823680824
4762	-0.268564993564993
4763	-0.264993564993565
4764	-0.232528957528957
4765	-0.216377091377091
4766	-0.21994851994852
4767	-0.20550193050193
4768	-0.221653796653797
4769	-0.169465894465894
4770	-0.178314028314028
4771	-0.189350064350064
4772	-0.173198198198198
4773	-0.201930501930502
4774	-0.216216216216216
4775	-0.217921492921493
4776	-0.20006435006435
4777	-0.223198198198198
4778	-0.257046332046332
4779	-0.235456885456885
4780	-0.251447876447876
4781	-0.220688545688545
4782	-0.233268983268983
4783	-0.261840411840412
4784	-0.265250965250965
4785	-0.24009009009009
4786	-0.211357786357786
4787	-0.168178893178893
4788	-0.187902187902188
4789	-0.186196911196911
4790	-0.164607464607464
4791	-0.191634491634491
4792	-0.166312741312741
4793	-0.164446589446589
4794	-0.14488416988417
4795	-0.139446589446589
4796	-0.159009009009009
4797	-0.182303732303732
4798	-0.157142857142857
4799	-0.10511583011583
4800	-0.164607464607464
4801	-0.200482625482625
4802	-0.196911196911197
4803	-0.161036036036036
4804	-0.171750321750322
4805	-0.191473616473616
4806	-0.170045045045045
4807	-0.139285714285714
4808	-0.187741312741313
4809	-0.169723294723295
4810	-0.159169884169884
4811	-0.166473616473616
4812	-0.123294723294723
4813	-0.0982947232947231
4814	-0.143500643500643
4815	-0.197393822393822
4816	-0.182947232947233
4817	-0.197393822393822
4818	-0.197393822393822
4819	-0.210135135135135
4820	-0.161679536679537
4821	-0.177831402831403
4822	-0.181402831402831
4823	-0.193983268983269
4824	-0.206563706563706
4825	-0.195688545688546
4826	-0.172393822393822
4827	-0.130920205920206
4828	-0.159652509652509
4829	-0.181241956241956
4830	-0.186518661518661
4831	-0.231402831402831
4832	-0.211679536679537
4833	-0.211679536679537
4834	-0.258268983268983
4835	-0.319144144144144
4836	-0.26509009009009
4837	-0.248777348777349
4838	-0.227027027027027
4839	-0.266312741312741
4840	-0.255598455598455
4841	-0.221428571428571
4842	-0.235714285714286
4843	-0.280598455598456
4844	-0.260714285714286
4845	-0.282303732303732
4846	-0.343178893178893
4847	-0.334169884169884
4848	-0.388063063063063
4849	-0.416634491634492
4850	-0.387741312741313
4851	-0.342696267696267
4852	-0.357142857142857
4853	-0.369723294723294
4854	-0.407464607464607
4855	-0.407464607464607
4856	-0.44520592020592
4857	-0.464929214929215
4858	-0.4756435006435
4859	-0.49009009009009
4860	-0.518983268983269
4861	-0.533429858429858
4862	-0.524420849420849
4863	-0.569465894465894
4864	-0.546010296010296
4865	-0.569305019305019
4866	-0.578314028314028
4867	-0.522554697554697
4868	-0.558429858429858
4869	-0.520688545688546
4870	-0.502670527670527
4871	-0.49552767052767
4872	-0.506402831402831
4873	-0.506402831402831
4874	-0.51541184041184
4875	-0.491956241956242
4876	-0.544144144144144
4877	-0.529697554697554
4878	-0.50453667953668
4879	-0.488384813384813
4880	-0.463384813384813
4881	-0.438223938223938
4882	-0.423938223938224
4883	-0.44009009009009
4884	-0.425643500643501
4885	-0.441795366795366
4886	-0.44520592020592
4887	-0.447072072072072
4888	-0.459652509652509
4889	-0.436357786357786
4890	-0.377027027027027
4891	-0.389607464607465
4892	-0.337580437580438
4893	-0.310553410553411
4894	-0.33043758043758
4895	-0.312419562419562
4896	-0.283687258687259
4897	-0.319562419562419
4898	-0.362580437580438
4899	-0.364285714285714
4900	-0.376866151866152
4901	-0.335714285714286
4902	-0.326705276705276
4903	-0.328571428571429
4904	-0.310553410553411
4905	-0.312419562419562
4906	-0.298294723294723
4907	-0.289285714285714
4908	-0.267696267696268
4909	-0.257142857142857
4910	-0.260875160875161
4911	-0.248616473616473
4912	-0.218018018018018
4913	-0.21988416988417
4914	-0.207464607464607
4915	-0.191312741312741
4916	-0.166312741312741
4917	-0.146750321750322
4918	-0.132464607464607
4919	-0.0659909909909907
4920	-0.0768661518661518
4921	-0.0843307593307592
4922	-0.0467503217503216
4923	-0.072072072072072
4924	-0.0146074646074645
4925	-0.0254826254826253
4926	-0.0219111969111967
4927	0.00495495495495524
4928	-0.00234877734877714
4929	-0.0385456885456885
4930	-0.0116795366795366
4931	-0.0116795366795366
4932	0.0170527670527671
4933	0.0634813384813384
4934	0.113481338481338
4935	0.136776061776062
4936	0.138481338481339
4937	0.10447232947233
4938	0.0934362934362936
4939	0.129311454311454
4940	0.158043758043759
4941	0.112998712998713
4942	0.08970398970399
4943	0.136132561132561
4944	0.116087516087516
4945	0.110810810810811
4946	0.164543114543114
4947	0.177123552123553
4948	0.167953667953668
4949	0.151480051480052
4950	0.112033462033462
4951	0.119176319176319
4952	0.0797297297297299
4953	0.0798906048906052
4954	0.0744530244530246
4955	0.0275418275418275
4956	0.0652831402831404
4957	0.0834620334620335
4958	0.0727477477477481
4959	0.0708815958815963
4960	0.0452380952380953
4961	0.0630952380952383
4962	0.0503539253539258
4963	0.0289253539253542
4964	0.0110682110682112
4965	0.032657657657658
4966	0.0544079794079795
4967	0.043532818532819
4968	0.0523809523809524
4969	0.041827541827542
4970	0.0491312741312744
4971	0.0363899613899616
4972	0.0489703989703989
4973	0.0686936936936939
4974	0.122747747747748
4975	0.10472972972973
4976	0.0957207207207211
4977	0.111872586872587
4978	0.122747747747748
4979	0.0940154440154439
4980	0.108622908622909
4981	0.10505148005148
4982	0.0186936936936939
4983	-0.0028957528957525
4984	0.0402831402831403
4985	0.0280244530244533
4986	0.0674710424710427
4987	0.0766409266409267
4988	0.0963642213642215
4989	0.0638996138996142
4990	0.054890604890605
4991	0.0694980694980696
4992	0.0606499356499357
4993	0.0589446589446594
4994	0.0696589446589448
4995	0.0824002574002574
4996	0.074034749034749
4997	0.0364543114543114
4998	0.00228442728442735
4999	0.0131595881595885
5000	0.00601673101673139
5001	0.0277670527670528
5002	0.00260617760617787
5003	-0.00283140283140271
5004	-0.0422779922779921
5005	-0.0279922779922779
5006	-0.0852960102960101
5007	-0.0922779922779922
5008	-0.158751608751609
5009	-0.178314028314028
5010	-0.217599742599743
5011	-0.271332046332046
5012	-0.328796653796654
5013	-0.323198198198198
5014	-0.359073359073359
5015	-0.392921492921493
5016	-0.414350064350064
5017	-0.450225225225225
5018	-0.457046332046332
5019	-0.469305019305019
5020	-0.481563706563707
5021	-0.467117117117117
5022	-0.537001287001287
5023	-0.58018018018018
5024	-0.633912483912484
5025	-0.658912483912484
5026	-0.655019305019305
5027	-0.699903474903475
5028	-0.717760617760618
5029	-0.719787644787645
5030	-0.744787644787645
5031	-0.762805662805663
5032	-0.764671814671814
5033	-0.739510939510939
5034	-0.723198198198198
5035	-0.712644787644787
5036	-0.716216216216216
5037	-0.710939510939511
5038	-0.707368082368082
5039	-0.710778635778636
5040	-0.68561776061776
5041	-0.690894465894466
5042	-0.655019305019305
5043	-0.646010296010296
5044	-0.572393822393822
5045	-0.574259974259974
5046	-0.569144144144144
5047	-0.538706563706564
5048	-0.504697554697554
5049	-0.499420849420849
5050	-0.429375804375804
5051	-0.386518661518662
5052	-0.372393822393822
5053	-0.352831402831403
5054	-0.360456885456885
5055	-0.378635778635778
5056	-0.373519948519948
5057	-0.400707850707851
5058	-0.329118404118404
5059	-0.325868725868726
5060	-0.300868725868726
5061	-0.265315315315315
5062	-0.261904761904762
5063	-0.211743886743887
5064	-0.213770913770914
5065	-0.197619047619048
5066	-0.217503217503217
5067	-0.186743886743887
5068	-0.176029601029601
5069	-0.149163449163449
5070	-0.116859716859717
5071	-0.145592020592021
5072	-0.120431145431145
5073	-0.16547619047619
5074	-0.176351351351351
5075	-0.183815958815959
5076	-0.214253539253539
5077	-0.203700128700129
5078	-0.222039897039897
5079	-0.227638352638353
5080	-0.216924066924067
5081	-0.218951093951094
5082	-0.222522522522523
5083	-0.262290862290862
5084	-0.264317889317889
5085	-0.242728442728443
5086	-0.273326898326898
5087	-0.330630630630631
5088	-0.323326898326898
5089	-0.292728442728443
5090	-0.20978120978121
5091	-0.199066924066924
5092	-0.204343629343629
5093	-0.182754182754183
5094	-0.193307593307593
5095	-0.149967824967825
5096	-0.187709137709137
5097	-0.171557271557271
5098	-0.153700128700128
5099	-0.180727155727155
5100	-0.188030888030888
5101	-0.189736164736164
5102	-0.191602316602317
5103	-0.233075933075933
5104	-0.24021879021879
5105	-0.247361647361647
5106	-0.240057915057915
5107	-0.202316602316602
5108	-0.191602316602317
5109	-0.198745173745174
5110	-0.188030888030888
5111	-0.157271557271557
5112	-0.130405405405405
5113	-0.1751287001287
5114	-0.173101673101673
5115	-0.196557271557271
5116	-0.241441441441441
5117	-0.246879021879022
5118	-0.243307593307593
5119	-0.241280566280566
5120	-0.257110682110682
5121	-0.282271557271557
