17	0.219354838709677
18	0.231612903225806
19	0.242365591397849
20	0.263870967741935
21	0.296129032258064
22	0.286881720430108
23	0.297634408602151
24	0.297634408602151
25	0.277634408602151
26	0.288387096774194
27	0.311397849462365
28	0.302150537634409
29	0.323655913978495
30	0.334408602150538
31	0.355913978494624
32	0.348172043010753
33	0.358924731182796
34	0.349677419354839
35	0.381935483870968
36	0.360430107526882
37	0.391182795698925
38	0.401935483870968
39	0.380430107526882
40	0.360430107526882
41	0.351182795698925
42	0.360430107526882
43	0.338924731182796
44	0.348172043010753
45	0.368172043010753
46	0.348172043010753
47	0.335913978494624
48	0.35741935483871
49	0.375913978494624
50	0.343655913978495
51	0.386666666666667
52	0.375913978494624
53	0.428172043010753
54	0.415913978494624
55	0.406666666666667
56	0.385161290322581
57	0.385161290322581
58	0.405161290322581
59	0.415913978494624
60	0.448172043010753
61	0.468172043010753
62	0.438924731182796
63	0.43741935483871
64	0.489677419354839
65	0.500430107526882
66	0.491182795698925
67	0.501935483870968
68	0.520430107526882
69	0.520430107526882
70	0.563440860215054
71	0.58494623655914
72	0.535698924731183
73	0.48494623655914
74	0.421935483870968
75	0.455698924731183
76	0.517204301075269
77	0.526451612903226
78	0.515698924731183
79	0.526451612903226
80	0.537204301075269
81	0.486451612903226
82	0.46494623655914
83	0.44494623655914
84	0.412688172043011
85	0.423440860215054
86	0.467956989247312
87	0.414193548387097
88	0.414193548387097
89	0.34494623655914
90	0.294193548387097
91	0.32494623655914
92	0.335698924731183
93	0.32494623655914
94	0.314193548387097
95	0.303440860215054
96	0.292688172043011
97	0.292688172043011
98	0.343440860215054
99	0.354193548387097
100	0.321935483870968
101	0.269677419354839
102	0.311182795698925
103	0.291182795698925
104	0.312688172043011
105	0.346451612903226
106	0.355698924731183
107	0.312688172043011
108	0.351182795698925
109	0.391182795698925
110	0.369677419354839
111	0.328172043010753
112	0.326666666666667
113	0.358924731182796
114	0.349677419354839
115	0.318924731182796
116	0.318924731182796
117	0.380430107526882
118	0.432688172043011
119	0.48494623655914
120	0.506451612903226
121	0.517204301075269
122	0.461935483870968
123	0.440430107526882
124	0.418924731182796
125	0.488172043010753
199	0.273118279569892
200	0.283870967741935
201	0.305376344086021
202	0.316129032258064
203	0.316129032258064
204	0.36989247311828
205	0.380645161290323
206	0.391397849462365
207	0.423655913978495
208	0.425161290322581
209	0.425161290322581
210	0.45741935483871
211	0.458924731182796
212	0.428172043010753
213	0.469677419354839
214	0.503440860215054
215	0.483440860215054
216	0.452688172043011
217	0.431182795698925
218	0.441935483870968
219	0.418924731182796
220	0.451182795698925
221	0.440430107526882
222	0.441935483870968
223	0.461935483870968
224	0.492688172043011
225	0.440430107526882
226	0.451182795698925
227	0.441935483870968
228	0.441935483870968
229	0.474193548387097
230	0.506451612903226
231	0.526451612903226
232	0.526451612903226
233	0.546451612903226
234	0.52494623655914
235	0.575698924731183
236	0.56494623655914
237	0.56494623655914
238	0.555698924731183
239	0.566451612903226
240	0.501935483870968
241	0.480430107526882
242	0.489677419354839
243	0.468172043010753
244	0.45741935483871
245	0.45741935483871
246	0.403655913978495
247	0.434408602150538
248	0.423655913978495
249	0.445161290322581
265	0.434408602150538
266	0.371397849462365
267	0.392903225806452
268	0.383655913978495
269	0.394408602150538
270	0.374408602150538
271	0.363655913978495
272	0.385161290322581
273	0.365161290322581
274	0.363655913978495
275	0.322150537634409
276	0.291397849462366
277	0.271397849462365
278	0.219139784946237
279	0.20989247311828
280	0.199139784946237
281	0.168387096774194
282	0.18989247311828
283	0.199139784946237
284	0.188387096774194
285	0.20989247311828
286	0.20989247311828
287	0.177634408602151
288	0.199139784946237
289	0.219139784946237
290	0.22989247311828
291	0.208387096774194
292	0.208387096774194
293	0.219139784946237
294	0.22989247311828
295	0.186881720430107
296	0.176129032258064
297	0.122365591397849
298	0.120860215053763
299	0.140860215053763
300	0.140860215053763
301	0.179354838709677
302	0.188602150537634
303	0.188602150537634
304	0.187096774193548
305	0.145591397849462
306	0.176344086021505
307	0.165591397849462
308	0.144086021505376
309	0.133333333333333
310	0.10258064516129
311	0.12258064516129
384	0.337634408602151
386	0.317634408602151
387	0.317634408602151
388	0.337634408602151
389	0.359139784946237
390	0.328387096774194
391	0.34989247311828
392	0.371397849462365
393	0.382150537634409
394	0.32989247311828
395	0.363655913978495
396	0.352903225806452
397	0.363655913978495
398	0.385161290322581
399	0.374408602150538
400	0.385161290322581
401	0.383655913978495
402	0.372903225806452
403	0.371397849462365
404	0.360645161290323
405	0.360645161290323
406	0.328387096774194
407	0.339139784946237
408	0.34989247311828
409	0.308387096774194
410	0.308387096774194
411	0.317634408602151
413	0.283870967741935
414	0.273118279569892
469	0.316129032258064
470	0.326881720430107
471	0.326881720430107
472	0.328387096774194
473	0.339139784946237
474	0.34989247311828
475	0.34989247311828
476	0.360645161290323
477	0.340645161290323
478	0.362150537634409
479	0.403655913978495
480	0.425161290322581
481	0.435913978494624
482	0.423655913978495
483	0.412903225806452
484	0.391397849462365
485	0.391397849462365
487	0.371397849462365
488	0.371397849462365
489	0.391397849462365
490	0.402150537634409
491	0.423655913978495
492	0.392903225806452
493	0.380645161290323
494	0.317634408602151
495	0.308387096774194
496	0.286881720430108
497	0.286881720430108
498	0.297634408602151
499	0.257634408602151
500	0.285376344086021
501	0.326881720430107
502	0.326881720430107
503	0.316129032258064
504	0.316129032258064
507	0.294623655913978
509	0.262365591397849
510	0.253118279569892
511	0.253118279569892
512	0.263870967741935
513	0.274623655913978
514	0.263870967741935
515	0.242365591397849
516	0.231612903225806
517	0.242365591397849
518	0.222365591397849
519	0.233118279569892
520	0.256129032258064
521	0.288387096774194
522	0.277634408602151
523	0.328387096774194
524	0.339139784946237
525	0.371397849462365
526	0.382150537634409
527	0.371397849462365
528	0.402150537634409
529	0.402150537634409
530	0.402150537634409
531	0.412903225806452
532	0.402150537634409
533	0.371397849462365
534	0.382150537634409
535	0.434408602150538
536	0.445161290322581
537	0.445161290322581
538	0.455913978494624
539	0.455913978494624
540	0.466666666666667
541	0.488172043010753
542	0.488172043010753
543	0.488172043010753
544	0.509677419354839
551	0.552688172043011
552	0.552688172043011
553	0.531182795698925
563	0.500430107526882
564	0.511182795698925
565	0.523440860215054
566	0.543440860215054
567	0.552688172043011
568	0.595698924731183
573	0.638709677419355
574	0.640215053763441
575	0.661720430107527
576	0.683225806451613
577	0.65247311827957
578	0.663225806451613
579	0.747741935483871
580	0.747741935483871
581	0.709247311827957
582	0.658494623655914
583	0.656989247311828
584	0.678494623655914
585	0.627741935483871
586	0.626236559139785
587	0.678494623655914
588	0.689247311827957
589	0.721505376344086
590	0.710752688172043
591	0.689247311827957
592	0.701505376344086
593	0.641505376344086
594	0.570752688172043
595	0.54
596	0.530752688172043
597	0.512258064516129
598	0.427741935483871
599	0.521505376344086
600	0.501505376344086
601	0.532258064516129
602	0.532258064516129
603	0.532258064516129
604	0.48
605	0.427741935483871
606	0.406236559139785
607	0.373978494623656
608	0.415483870967742
609	0.424731182795699
610	0.435483870967742
611	0.403225806451613
612	0.435483870967742
613	0.433978494623656
614	0.466236559139785
615	0.41247311827957
616	0.41247311827957
617	0.473978494623656
618	0.493978494623656
619	0.515483870967742
620	0.504731182795699
621	0.555483870967742
622	0.576989247311828
623	0.523225806451613
624	0.51247311827957
625	0.490967741935484
626	0.480215053763441
627	0.480215053763441
628	0.487956989247312
629	0.558709677419355
630	0.618709677419355
631	0.649462365591398
632	0.618709677419355
633	0.617204301075269
635	0.586451612903226
636	0.606451612903226
637	0.58494623655914
638	0.574193548387097
639	0.56494623655914
640	0.595698924731183
659	0.423655913978495
660	0.382150537634409
661	0.371397849462365
662	0.371397849462365
663	0.392903225806452
664	0.403655913978495
665	0.371397849462365
666	0.371397849462365
667	0.339139784946237
684	0.316129032258064
685	0.348387096774194
686	0.348387096774194
705	0.412903225806452
706	0.434408602150538
709	0.466666666666667
710	0.489677419354839
711	0.523440860215054
712	0.512688172043011
713	0.514193548387097
714	0.512688172043011
715	0.501935483870968
716	0.523440860215054
717	0.543440860215054
718	0.521935483870968
719	0.491182795698925
720	0.511182795698925
721	0.480430107526882
722	0.480430107526882
723	0.480430107526882
724	0.449677419354839
725	0.41741935483871
726	0.449677419354839
727	0.438924731182796
728	0.480430107526882
729	0.480430107526882
730	0.511182795698925
731	0.469677419354839
732	0.451182795698925
733	0.469677419354839
734	0.501935483870968
735	0.480430107526882
736	0.448172043010753
737	0.41741935483871
738	0.354408602150538
739	0.355913978494624
740	0.368172043010753
741	0.388172043010753
742	0.355913978494624
743	0.334408602150538
744	0.345161290322581
745	0.332903225806452
746	0.299139784946237
747	0.297634408602151
748	0.286881720430108
749	0.285376344086021
750	0.306881720430107
751	0.296129032258064
752	0.274623655913978
753	0.285376344086021
754	0.317634408602151
755	0.337634408602151
756	0.359139784946237
763	0.412903225806452
764	0.34989247311828
765	0.403655913978495
766	0.363655913978495
767	0.363655913978495
768	0.382150537634409
769	0.394408602150538
770	0.351397849462366
771	0.343655913978495
772	0.388172043010753
773	0.398924731182796
774	0.440430107526882
775	0.471182795698925
776	0.449677419354839
777	0.460430107526882
778	0.443440860215054
779	0.454193548387097
780	0.443440860215054
781	0.46494623655914
782	0.475698924731183
783	0.44494623655914
784	0.42494623655914
785	0.414193548387097
786	0.371182795698925
787	0.371182795698925
788	0.392688172043011
789	0.394193548387097
790	0.351182795698925
791	0.361935483870968
792	0.351182795698925
793	0.320430107526882
794	0.363440860215054
795	0.36494623655914
796	0.32494623655914
797	0.314193548387097
798	0.283440860215054
799	0.201935483870968
800	0.192688172043011
801	0.138924731182796
802	0.118924731182796
803	0.0989247311827958
804	0.120430107526882
805	0.0481720430107526
806	0.0589247311827956
807	0.0666666666666667
808	0.0236559139784946
809	-0.0055913978494625
810	-0.0655913978494623
811	-0.0548387096774193
812	-0.0655913978494623
813	-0.0655913978494623
814	-0.0470967741935485
815	-0.0578494623655915
816	-0.0855913978494625
817	-0.105591397849462
818	-0.105591397849462
819	-0.154838709677419
820	-0.154838709677419
821	-0.224086021505376
822	-0.233333333333333
823	-0.24258064516129
824	-0.271827956989247
825	-0.261075268817204
826	-0.310322580645161
827	-0.370322580645161
828	-0.401075268817204
829	-0.370322580645161
830	-0.348817204301075
831	-0.339569892473118
832	-0.361075268817204
833	-0.351827956989247
834	-0.330322580645161
835	-0.259569892473118
836	-0.228817204301075
837	-0.238064516129032
838	-0.178064516129032
839	-0.138064516129032
840	-0.136559139784946
841	-0.0550537634408603
842	-0.0643010752688173
843	-0.0643010752688173
844	-0.0535483870967743
845	-0.0350537634408603
846	0.0464516129032256
847	0.0572043010752687
848	0.130967741935484
849	0.110967741935484
850	0.130967741935484
851	0.110967741935484
852	0.181720430107527
853	0.181720430107527
854	0.183225806451613
855	0.201720430107527
856	0.221720430107527
857	0.29247311827957
858	0.323225806451613
859	0.303225806451613
860	0.310967741935484
861	0.321720430107527
862	0.341720430107527
863	0.380215053763441
864	0.400215053763441
865	0.361720430107527
866	0.257204301075269
867	0.226451612903226
868	0.226451612903226
869	0.206451612903226
870	0.20494623655914
871	0.174193548387097
872	0.194193548387097
873	0.181935483870968
874	0.172688172043011
875	0.183440860215054
876	0.181935483870968
877	0.161935483870968
878	0.141935483870968
879	0.132688172043011
880	0.112688172043011
881	0.123440860215054
882	0.0404301075268817
883	-0.0210752688172043
884	-0.0840860215053765
885	-0.0733333333333335
886	-0.12258064516129
887	-0.121075268817204
888	-0.193333333333333
889	-0.171827956989247
890	-0.161075268817204
891	-0.131827956989247
892	-0.110322580645161
893	-0.131827956989247
894	-0.131827956989247
895	-0.121075268817204
896	-0.119569892473118
897	-0.131827956989247
898	-0.101075268817204
899	-0.0658064516129033
900	-0.0212903225806452
901	-0.0427956989247312
902	-0.0212903225806452
903	-0.00129032258064521
904	0.0309677419354838
905	0.0417204301075268
906	0.00172043010752676
907	0.0524731182795699
908	-0.0597849462365592
909	-0.0690322580645162
910	-0.0597849462365592
911	-0.110537634408602
912	-0.130537634408602
913	-0.119784946236559
914	-0.130537634408602
915	-0.138279569892473
916	-0.129032258064516
917	-0.149032258064516
918	-0.138279569892473
919	-0.12752688172043
920	-0.12752688172043
921	-0.138279569892473
922	-0.0690322580645162
923	-0.0275268817204301
924	-0.00752688172043003
925	-0.0382795698924732
926	-0.0782795698924732
927	-0.0460215053763441
928	-0.0552688172043012
929	-0.0752688172043011
930	-0.146021505376344
931	-0.126021505376344
932	-0.136774193548387
933	-0.136774193548387
934	-0.0845161290322581
935	-0.149032258064516
936	-0.182795698924731
937	-0.112043010752688
938	-0.124301075268817
939	-0.0612903225806452
940	-0.0720430107526882
941	-0.0720430107526882
942	-0.0105376344086022
943	-0.0612903225806452
944	-0.0197849462365592
945	0.000215053763440776
946	-0.0197849462365592
947	-0.00752688172043003
948	-0.00903225806451624
949	-0.0305376344086022
950	0.0202150537634408
951	-0.0305376344086022
952	-0.0105376344086022
953	-0.00129032258064521
954	0.0602150537634408
955	0.0294623655913978
956	0.0602150537634408
957	0.0739784946236559
958	0.0432258064516129
959	-0.0212903225806452
960	-0.0612903225806452
961	-0.0305376344086022
962	-0.0243010752688173
963	-0.0535483870967743
964	-0.0858064516129033
965	-0.0135483870967743
966	0.00645161290322571
967	-0.0150537634408603
968	-0.0243010752688173
969	-0.0458064516129033
970	-0.0765591397849463
971	-0.0565591397849463
972	-0.0658064516129033
973	-0.0965591397849463
974	-0.0750537634408603
975	-0.145806451612903
976	-0.105806451612903
977	-0.116559139784946
978	-0.147311827956989
979	-0.107311827956989
980	-0.0873118279569892
981	-0.136559139784946
982	-0.0950537634408604
983	-0.0765591397849463
984	-0.104301075268817
985	-0.0412903225806452
986	-0.0627956989247312
987	0.0372043010752688
988	0.0372043010752688
989	0.0387096774193548
990	-0.0320430107526882
991	0.00795698924731181
992	0.0187096774193548
993	-0.00430107526881729
994	0.0372043010752688
995	0.0587096774193548
996	0.181720430107527
997	0.109462365591398
998	0.141720430107527
999	0.110967741935484
1000	0.15247311827957
1001	0.0402150537634408
1002	0.0694623655913978
1003	0.0909677419354838
1004	0.141720430107527
1005	0.161720430107527
1006	0.141720430107527
1007	0.140215053763441
1008	0.160215053763441
1009	0.190967741935484
1010	0.193978494623656
1011	0.17247311827957
1012	0.101720430107527
1013	0.143225806451613
1014	0.196989247311828
1015	0.136989247311828
1016	0.149247311827957
1017	0.189247311827957
1018	0.2
1019	0.178494623655914
1020	0.218494623655914
1021	0.164731182795699
1022	0.196989247311828
1023	0.166236559139785
1024	0.187741935483871
1025	0.187741935483871
1026	0.216989247311828
1027	0.229247311827957
1028	0.2
1029	0.218494623655914
1030	0.218494623655914
1031	0.198494623655914
1032	0.136989247311828
1033	0.107741935483871
1034	0.109247311827957
1035	0.147741935483871
1036	0.138494623655914
1037	0.22
1038	0.263010752688172
1039	0.243010752688172
1040	0.181505376344086
1041	0.173763440860215
1042	0.163010752688172
1043	0.164516129032258
1044	0.144516129032258
1045	0.0937634408602149
1046	0.090752688172043
1047	0.129247311827957
1048	0.16
1049	0.192258064516129
1050	0.127741935483871
1051	0.178494623655914
1052	0.186236559139785
1053	0.184731182795699
1054	0.173978494623656
1055	0.195483870967742
1056	0.193978494623656
1057	0.155483870967742
1058	0.0832258064516129
1059	0.0632258064516129
1060	0.0417204301075268
1061	0.0509677419354838
1062	0.0832258064516129
1063	0.0802150537634408
1064	0.0679569892473117
1065	0.0464516129032256
1066	0.0156989247311827
1067	0.0249462365591396
1068	-0.0365591397849463
1069	0.0864516129032257
1070	0.0849462365591398
1071	0.0787096774193548
1072	0.0249462365591396
1073	0.0756989247311827
1074	0.0141935483870966
1075	0.0172043010752688
1076	0.0787096774193548
1077	0.0572043010752687
1078	0.0572043010752687
1079	0.0694623655913978
1080	0.0787096774193548
1081	0.0987096774193548
1082	0.0387096774193548
1083	0.00795698924731181
1084	-0.00279569892473119
1085	-0.00279569892473119
1086	-0.0305376344086022
1087	-0.0212903225806452
1088	-0.0505376344086022
1089	-0.0397849462365591
1090	-0.0905376344086022
1091	-0.112043010752688
1092	-0.141290322580645
1093	-0.0920430107526882
1094	-0.0920430107526882
1095	-0.0735483870967744
1096	-0.112043010752688
1097	-0.142795698924731
1098	-0.185806451612903
1099	-0.204301075268817
1100	-0.244301075268817
1101	-0.242795698924731
1102	-0.273548387096774
1103	-0.284301075268817
1104	-0.25505376344086
1105	-0.298064516129032
1106	-0.379569892473118
1107	-0.361075268817204
1108	-0.359569892473118
1109	-0.410322580645161
1110	-0.391827956989247
1111	-0.394838709677419
1112	-0.487096774193548
1113	-0.436344086021505
1114	-0.437849462365591
1115	-0.459354838709677
1116	-0.468602150537635
1117	-0.467096774193548
1118	-0.396344086021505
1119	-0.376344086021505
1120	-0.336344086021505
1121	-0.420860215053763
1122	-0.362365591397849
1123	-0.382365591397849
1124	-0.374623655913979
1125	-0.365376344086022
1126	-0.282365591397849
1127	-0.291612903225806
1128	-0.251612903225806
1129	-0.29010752688172
1130	-0.194838709677419
1131	-0.24258064516129
1132	-0.24258064516129
1133	-0.221075268817204
1134	-0.199569892473118
1135	-0.201075268817204
1136	-0.0765591397849463
1137	-0.0873118279569892
1138	-0.00430107526881729
1139	0.00795698924731181
1140	0.0802150537634408
1141	0.0509677419354838
1142	0.0924731182795699
1143	0.0709677419354838
1144	0.121720430107527
1145	0.150967741935484
1146	0.120215053763441
1147	0.150967741935484
1148	0.183225806451613
1149	0.164731182795699
1150	0.218494623655914
1151	0.207741935483871
1152	0.227741935483871
1153	0.226236559139785
1154	0.236989247311828
1155	0.218494623655914
1156	0.2
1157	0.243010752688172
1158	0.28752688172043
1159	0.276774193548387
1160	0.352043010752688
1161	0.313548387096774
1162	0.272043010752688
1163	0.292043010752688
1164	0.281290322580645
1165	0.362795698924731
1166	0.309032258064516
1167	0.378279569892473
1168	0.458279569892473
1169	0.418279569892473
1170	0.409032258064516
1171	0.389032258064516
1172	0.336774193548387
1173	0.329032258064516
1174	0.30752688172043
1175	0.338279569892473
1176	0.318279569892473
1177	0.34752688172043
1178	0.295268817204301
1179	0.336774193548387
1180	0.336774193548387
1181	0.316774193548387
1182	0.358279569892473
1183	0.358279569892473
1184	0.378279569892473
1185	0.429032258064516
1186	0.375268817204301
1187	0.42752688172043
1188	0.419784946236559
1189	0.462795698924731
1190	0.421290322580645
1191	0.452043010752688
1192	0.504301075268817
1193	0.482795698924731
1194	0.439784946236559
1195	0.459784946236559
1196	0.346021505376344
1197	0.366021505376344
1198	0.343010752688172
1199	0.281505376344086
1200	0.252258064516129
1201	0.198494623655914
1202	0.156989247311828
1203	0.116989247311828
1204	0.0969892473118279
1205	0.0954838709677418
1206	0.0939784946236559
1207	0.123225806451613
1208	0.110967741935484
1209	0.149462365591398
1210	0.107956989247312
1211	0.0864516129032257
1212	0.0756989247311827
1213	0.0787096774193548
1214	0.118709677419355
1215	0.0879569892473118
1216	0.0479569892473118
1217	0.0894623655913978
1218	0.0894623655913978
1219	0.0909677419354838
1220	0.0802150537634408
1221	0.0172043010752688
1222	0.0494623655913978
1223	0.00645161290322571
1224	0.0141935483870966
1225	-0.0688172043010753
1226	-0.0488172043010753
1227	-0.00731182795698926
1228	-0.00881720430107535
1229	-0.0195698924731184
1230	-0.0103225806451613
1231	-0.0395698924731184
1232	-0.00881720430107535
1233	-0.00107526881720421
1234	0.0526881720430109
1235	0.0956989247311828
1236	0.146451612903226
1237	0.137204301075269
1238	0.177204301075269
1239	0.198709677419355
1240	0.187956989247312
1241	0.189462365591398
1242	0.230967741935484
1243	0.230967741935484
1244	0.220215053763441
1245	0.210967741935484
1246	0.201720430107527
1247	0.170967741935484
1248	0.180215053763441
1249	0.167956989247312
1250	0.198709677419355
1251	0.189462365591398
1252	0.187956989247312
1253	0.167956989247312
1254	0.126451612903226
1255	0.135698924731183
1256	0.155698924731183
1257	0.186451612903226
1258	0.155698924731183
1259	0.0849462365591398
1260	0.0956989247311828
1261	0.189462365591398
1262	0.178709677419355
1263	0.135698924731183
1264	0.0941935483870967
1265	0.0956989247311828
1266	0.0356989247311826
1267	0.0464516129032256
1268	0.0664516129032257
1269	0.00795698924731181
1270	-0.00430107526881729
1271	-0.0273118279569892
1272	-0.127311827956989
1273	-0.11505376344086
1274	-0.13505376344086
1275	-0.125806451612903
1276	-0.113548387096774
1277	-0.13505376344086
1278	-0.21505376344086
1279	-0.213548387096774
1280	-0.242795698924731
1281	-0.233548387096774
1282	-0.244301075268817
1283	-0.244301075268817
1284	-0.284301075268817
1285	-0.325806451612903
1286	-0.35505376344086
1287	-0.367311827956989
1288	-0.376559139784946
1289	-0.378064516129032
1290	-0.396559139784946
1291	-0.418064516129032
1292	-0.445806451612903
1293	-0.465806451612903
1294	-0.424301075268817
1295	-0.353548387096774
1296	-0.413548387096774
1297	-0.425806451612903
1298	-0.484301075268817
1299	-0.472043010752688
1300	-0.552043010752688
1301	-0.513548387096775
1302	-0.493548387096774
1303	-0.51505376344086
1304	-0.536559139784946
1305	-0.465806451612903
1306	-0.45505376344086
1307	-0.359784946236559
1308	-0.312043010752688
1309	-0.35505376344086
1310	-0.35505376344086
1311	-0.376559139784946
1312	-0.365806451612903
1313	-0.356559139784946
1314	-0.278064516129032
1315	-0.247311827956989
1316	-0.236559139784946
1317	-0.236559139784946
1318	-0.216559139784946
1319	-0.216559139784946
1320	-0.133548387096774
1321	-0.0720430107526882
1322	-0.0427956989247312
1323	0.0417204301075268
1324	0.115483870967742
1325	0.0969892473118279
1326	0.115483870967742
1327	0.127741935483871
1328	0.155483870967742
1329	0.0954838709677418
1330	0.104731182795699
1331	0.156989247311828
1332	0.187741935483871
1333	0.218494623655914
1334	0.226236559139785
1335	0.233978494623656
1336	0.283225806451613
1337	0.286236559139785
1338	0.275483870967742
1339	0.306236559139785
1340	0.275483870967742
1341	0.246236559139785
1342	0.226236559139785
1343	0.183225806451613
1344	0.164731182795699
1345	0.175483870967742
1346	0.146236559139785
1347	0.138494623655914
1348	0.146236559139785
1349	0.106236559139785
1350	0.110752688172043
1351	0.110752688172043
1352	0.150752688172043
1353	0.14
1354	0.161505376344086
1355	0.204516129032258
1356	0.121505376344086
1357	0.143010752688172
1358	0.103010752688172
1359	0.0399999999999999
1360	-0.0230107526881721
1361	-0.0445161290322582
1362	-0.00301075268817208
1363	-0.00451612903225818
1364	-0.0260215053763441
1365	0.107741935483871
1366	0.0969892473118279
1367	0.0447311827956988
1368	0.0554838709677418
1369	0.0462365591397849
1370	0.0769892473118279
1371	0.0769892473118279
1372	0.069247311827957
1373	0.036989247311828
1374	0.0384946236559139
1375	0.0384946236559139
1376	0.090752688172043
1377	0.109247311827957
1378	0.107741935483871
1379	0.0984946236559139
1380	0.107741935483871
1381	0.107741935483871
1382	0.169247311827957
1383	0.207741935483871
1384	0.176989247311828
1385	0.281505376344086
1386	0.269247311827957
1387	0.227741935483871
1388	0.186236559139785
1389	0.186236559139785
1390	0.115483870967742
1391	0.0632258064516129
1392	0.0954838709677418
1393	0.0754838709677418
1394	0.147741935483871
1395	0.189247311827957
1396	0.198494623655914
1397	0.169247311827957
1398	0.089247311827957
1399	0.101505376344086
1400	0.144516129032258
1401	0.0722580645161289
1402	0.0615053763440859
1403	0.113763440860215
1404	0.103010752688172
1405	0.0922580645161289
1406	0.0552688172043012
1407	0.0767741935483872
1408	0.0752688172043012
1409	0.12752688172043
1410	0.0952688172043011
1411	0.0952688172043011
1412	0.0645161290322582
1413	0.0645161290322582
1414	0.0875268817204302
1415	-0.00322580645161286
1416	0.00903225806451613
1417	0.0720430107526879
1418	0.0412903225806451
1419	0.0197849462365591
1420	-0.0109677419354839
1421	-0.0832258064516129
1422	-0.144731182795699
1423	-0.135483870967742
1424	-0.0924731182795697
1425	-0.0602150537634407
1426	0.0197849462365591
1427	0.0597849462365592
1428	0.0690322580645162
1429	0.0797849462365592
1430	0.0167741935483872
1431	-0.0124731182795699
1432	-0.0124731182795699
1433	0.0782795698924732
1434	0.116774193548387
1435	0.0845161290322581
1436	0.0952688172043011
1437	0.0415053763440859
1438	0.0630107526881719
1439	0.0860215053763442
1440	0.0890322580645162
1441	0.0875268817204302
1442	0.169032258064516
1443	0.179784946236559
1444	0.230537634408602
1445	0.149032258064516
1446	0.190537634408602
1447	0.212043010752688
1448	0.241290322580645
1449	0.244301075268817
1450	0.182795698924731
1451	0.284301075268817
1452	0.281290322580645
1453	0.269032258064516
1454	0.298279569892473
1455	0.26752688172043
1456	0.361290322580645
1457	0.370537634408602
1458	0.430537634408602
1459	0.390537634408602
1460	0.330537634408602
1461	0.309032258064516
1462	0.298279569892473
1463	0.279784946236559
1464	0.310537634408602
1465	0.278279569892473
1466	0.258279569892473
1467	0.235268817204301
1468	0.186021505376344
1469	0.166021505376344
1470	0.196774193548387
1471	0.198279569892473
1472	0.186021505376344
1473	0.195268817204301
1474	0.184516129032258
1475	0.141505376344086
1476	0.189247311827957
1477	0.181505376344086
1478	0.116989247311828
1479	0.0647311827956988
1480	0.0539784946236559
1481	0.106236559139785
1482	0.0847311827956988
1483	0.0524731182795699
1484	0.0432258064516129
1485	0.0402150537634408
1486	0.0417204301075268
1487	0.00946236559139779
1488	0.0109677419354838
1489	-0.0290322580645161
1490	-0.0397849462365591
1491	-0.00752688172043003
1492	-0.0290322580645161
1493	-0.0182795698924731
1494	-0.0290322580645161
1495	0.0232258064516129
1496	0.0417204301075268
1497	0.0217204301075268
1498	0.00322580645161297
1499	0.0124731182795699
1500	-0.0305376344086022
1501	-0.0212903225806452
1502	0.0294623655913978
1503	0.0617204301075268
1504	0.121720430107527
1505	0.0909677419354838
1506	0.0602150537634408
1507	0.101720430107527
1508	0.103225806451613
1509	0.104731182795699
1510	0.0647311827956988
1511	0.0847311827956988
1512	0.0417204301075268
1513	0.00795698924731181
1514	0.0387096774193548
1515	0.00946236559139779
1516	0.0294623655913978
1517	0.0372043010752688
1518	0.100215053763441
1519	0.13247311827957
1520	0.173978494623656
1521	0.173978494623656
1522	0.21247311827957
1523	0.201720430107527
1524	0.209462365591398
1525	0.220215053763441
1526	0.241720430107527
1527	0.270967741935484
1528	0.209462365591398
1529	0.187956989247312
1530	0.250967741935484
1531	0.221720430107527
1532	0.240215053763441
1533	0.250967741935484
1534	0.301720430107527
1535	0.300215053763441
1536	0.281720430107527
1537	0.270967741935484
1538	0.240215053763441
1539	0.187956989247312
1540	0.209462365591398
1541	0.218709677419355
1542	0.198709677419355
1543	0.218709677419355
1544	0.227956989247312
1545	0.258709677419355
1546	0.277204301075269
1547	0.238709677419355
1548	0.281720430107527
1549	0.301720430107527
1550	0.273978494623656
1551	0.335483870967742
1552	0.327741935483871
1553	0.286236559139785
1554	0.203225806451613
1555	0.201720430107527
1556	0.180215053763441
1557	0.221720430107527
1558	0.243225806451613
1559	0.244731182795699
1560	0.224731182795699
1561	0.276989247311828
1562	0.215483870967742
1563	0.226236559139785
1564	0.287741935483871
1565	0.318494623655914
1566	0.306236559139785
1567	0.326236559139785
1568	0.307741935483871
1569	0.226236559139785
1570	0.204731182795699
1571	0.236989247311828
1572	0.266236559139785
1573	0.289247311827957
1574	0.332258064516129
1575	0.312258064516129
1576	0.3
1577	0.309247311827957
1578	0.341505376344086
1579	0.249247311827957
1580	0.22
1581	0.210752688172043
1582	0.232258064516129
1583	0.281505376344086
1584	0.229247311827957
1585	0.209247311827957
1586	0.176989247311828
1587	0.176989247311828
1588	0.175483870967742
1589	0.176989247311828
1590	0.186236559139785
1591	0.146236559139785
1592	0.176989247311828
1593	0.135483870967742
1594	0.103225806451613
1595	0.0509677419354838
1596	0.0817204301075268
1597	0.0602150537634408
1598	0.0602150537634408
1599	0.0279569892473118
1600	0.0202150537634408
1601	0.0724731182795699
1602	0.0509677419354838
1603	0.0402150537634408
1604	0.0709677419354838
1605	0.163225806451613
1606	0.175483870967742
1607	0.11247311827957
1608	0.0647311827956988
1609	0.0632258064516129
1610	0.0524731182795699
1611	0.113978494623656
1612	0.0939784946236559
1613	0.126236559139785
1614	0.0847311827956988
1615	0.113978494623656
1616	0.0924731182795699
1617	0.0802150537634408
1618	0.0509677419354838
1619	0.0509677419354838
1620	0.103225806451613
1621	0.124731182795699
1622	0.156989247311828
1623	0.158494623655914
1624	0.210752688172043
1625	0.229247311827957
1626	0.241505376344086
1627	0.250752688172043
1628	0.243010752688172
1629	0.223010752688172
1630	0.224516129032258
1631	0.255268817204301
1632	0.235268817204301
1633	0.204516129032258
1634	0.24752688172043
1635	0.312043010752688
1636	0.298279569892473
1637	0.256774193548387
1638	0.332043010752688
1639	0.281290322580645
1640	0.301290322580645
1641	0.269032258064516
1642	0.281290322580645
1643	0.322795698924731
1644	0.359784946236559
1645	0.392043010752688
1646	0.379784946236559
1647	0.399784946236559
1648	0.419784946236559
1649	0.390537634408602
1650	0.441290322580645
1651	0.473548387096774
1652	0.533548387096774
1653	0.522795698924731
1654	0.553548387096774
1655	0.584301075268817
1656	0.542795698924731
1657	0.553548387096774
1658	0.581290322580645
1659	0.559784946236559
1660	0.538279569892473
1661	0.509032258064516
1662	0.50752688172043
1663	0.52752688172043
1664	0.493763440860215
1665	0.524516129032258
1666	0.524516129032258
1667	0.513763440860215
1668	0.555268817204301
1669	0.584516129032258
1670	0.581505376344086
1671	0.56
1672	0.529247311827957
1673	0.529247311827957
1674	0.527741935483871
1675	0.558494623655914
1676	0.547741935483871
1677	0.612258064516129
1678	0.558494623655914
1679	0.516989247311828
1680	0.476989247311828
1681	0.476989247311828
1682	0.447741935483871
1683	0.449247311827957
1684	0.44
1685	0.429247311827957
1686	0.418494623655914
1687	0.407741935483871
1688	0.44
1689	0.42
1690	0.367741935483871
1691	0.315483870967742
1692	0.303225806451613
1693	0.301720430107527
1694	0.281720430107527
1695	0.250967741935484
1696	0.218709677419355
1697	0.247956989247312
1698	0.278709677419355
1699	0.310967741935484
1700	0.330967741935484
1701	0.300215053763441
1702	0.289462365591398
1703	0.270967741935484
1704	0.241720430107527
1705	0.21247311827957
1706	0.21247311827957
1707	0.19247311827957
1708	0.223225806451613
1709	0.203225806451613
1710	0.149462365591398
1711	0.158709677419355
1712	0.149462365591398
1713	0.0756989247311827
1714	0.106451612903226
1715	0.137204301075269
1716	0.189462365591398
1717	0.167956989247312
1718	0.106451612903226
1719	0.0434408602150537
1720	0.0434408602150537
1721	0.0111827956989247
1722	0.0111827956989247
1723	-0.00881720430107535
1724	-0.0625806451612904
1725	-0.0518279569892474
1726	0.0111827956989247
1727	0.0341935483870967
1728	0.0141935483870966
1729	0.0156989247311827
1730	0.0264516129032257
1731	0.0664516129032257
1732	0.0802150537634408
1733	0.0509677419354838
1734	0.0202150537634408
1735	-0.0212903225806452
1736	-0.00903225806451624
1737	-0.0382795698924732
1738	-0.0275268817204301
1739	0.0217204301075268
1740	-0.0305376344086022
1741	-0.0505376344086022
1742	-0.0460215053763441
1743	-0.0460215053763441
1744	-0.096774193548387
1745	-0.0567741935483871
1746	-0.0767741935483871
1747	-0.126021505376344
1748	-0.158279569892473
1749	-0.189032258064516
1750	-0.169032258064516
1751	-0.158279569892473
1752	-0.190537634408602
1753	-0.232043010752688
1754	-0.161290322580645
1755	-0.0890322580645162
1756	-0.118279569892473
1757	-0.0982795698924732
1758	-0.0675268817204301
1759	-0.0997849462365592
1760	-0.0875268817204301
1761	-0.14752688172043
1762	-0.14752688172043
1763	-0.159784946236559
1764	-0.149032258064516
1765	-0.170537634408602
1766	-0.201290322580645
1767	-0.169032258064516
1768	-0.192043010752688
1769	-0.182795698924731
1770	-0.172043010752688
1771	-0.130537634408602
1772	-0.139784946236559
1773	-0.0490322580645162
1774	-0.0612903225806452
1775	-0.0905376344086022
1776	-0.101290322580645
1777	-0.0905376344086022
1778	-0.124301075268817
1779	-0.0935483870967743
1780	-0.104301075268817
1781	-0.156559139784946
1782	-0.176559139784946
1783	-0.105806451612903
1784	-0.0858064516129033
1785	-0.0858064516129033
1786	-0.168817204301075
1787	-0.198064516129032
1788	-0.187311827956989
1789	-0.144301075268817
1790	-0.142795698924731
1791	-0.21505376344086
1792	-0.205806451612903
1793	-0.205806451612903
1794	-0.19505376344086
1795	-0.164301075268817
1796	-0.164301075268817
1797	-0.0935483870967743
1798	-0.105806451612903
1799	-0.0935483870967743
1800	-0.0935483870967743
1801	-0.101290322580645
1802	-0.0582795698924732
1803	-0.0382795698924732
1804	0.00322580645161297
1805	0.0447311827956988
1806	0.0554838709677418
1807	0.0339784946236559
1808	0.0739784946236559
1809	0.0109677419354838
1810	0.0432258064516129
1811	0.0447311827956988
1812	0.104731182795699
1813	0.164731182795699
1814	0.204731182795699
1815	0.183225806451613
1816	0.204731182795699
1817	0.24
1818	0.26
1819	0.218494623655914
1820	0.198494623655914
1821	0.238494623655914
1822	0.28
1823	0.32
1824	0.289247311827957
1825	0.276989247311828
1826	0.307741935483871
1827	0.38
1828	0.367741935483871
1829	0.336989247311828
1830	0.295483870967742
1831	0.306236559139785
1832	0.327741935483871
1833	0.358494623655914
1834	0.338494623655914
1835	0.367741935483871
1836	0.376989247311828
1837	0.375483870967742
1838	0.35247311827957
1839	0.330967741935484
1840	0.333978494623656
1841	0.27247311827957
1842	0.283225806451613
1843	0.201720430107527
1844	0.203225806451613
1845	0.193978494623656
1846	0.17247311827957
1847	0.233978494623656
1848	0.276989247311828
1849	0.266236559139785
1850	0.206236559139785
1851	0.135483870967742
1852	0.184731182795699
1853	0.130967741935484
1854	0.163225806451613
1855	0.215483870967742
1856	0.236989247311828
1857	0.249247311827957
1858	0.301505376344086
1859	0.324516129032258
1860	0.386021505376344
1861	0.364516129032258
1862	0.292258064516129
1863	0.241505376344086
1864	0.283010752688172
1865	0.346021505376344
1866	0.295268817204301
1867	0.338279569892473
1868	0.304516129032258
1869	0.273763440860215
1870	0.283010752688172
1871	0.263010752688172
1872	0.284516129032258
1873	0.303010752688172
1874	0.324516129032258
1875	0.335268817204301
1876	0.313763440860215
1877	0.375268817204301
1878	0.375268817204301
1879	0.44752688172043
1880	0.375268817204301
1881	0.415268817204301
1882	0.415268817204301
1883	0.403010752688172
1884	0.393763440860215
1885	0.404516129032258
1886	0.466021505376344
1887	0.484516129032258
1888	0.52752688172043
1889	0.516774193548387
1890	0.504516129032258
1891	0.473763440860215
1892	0.443010752688172
1893	0.461505376344086
1894	0.4
1895	0.346236559139785
1896	0.336989247311828
1897	0.358494623655914
1898	0.358494623655914
1899	0.336989247311828
1900	0.316989247311828
1901	0.287741935483871
1902	0.336989247311828
1903	0.309247311827957
1904	0.301505376344086
1905	0.272258064516129
1906	0.304516129032258
1907	0.304516129032258
1908	0.326021505376344
1909	0.286021505376344
1910	0.256774193548387
1911	0.256774193548387
1912	0.286021505376344
1913	0.233763440860215
1914	0.233763440860215
1915	0.212258064516129
1916	0.255268817204301
1917	0.20752688172043
1918	0.210537634408602
1919	0.190537634408602
1920	0.116774193548387
1921	0.0952688172043011
1922	0.0630107526881719
1923	0.138279569892473
1924	0.138279569892473
1925	0.158279569892473
1926	0.150537634408602
1927	0.109032258064516
1928	0.139784946236559
1929	0.141290322580645
1930	0.119784946236559
1931	0.110537634408602
1932	0.0705376344086022
1933	0.0505376344086022
1934	0.112043010752688
1935	0.162795698924731
1936	0.193548387096774
1937	0.182795698924731
1938	0.164301075268817
1939	0.119784946236559
1940	0.0875268817204302
1941	0.179784946236559
1942	0.201290322580645
1943	0.161290322580645
1944	0.182795698924731
1945	0.233548387096774
1946	0.232043010752688
1947	0.273548387096774
1948	0.262795698924731
1949	0.304301075268817
1950	0.252043010752688
1951	0.232043010752688
1952	0.241290322580645
1953	0.279784946236559
1954	0.176774193548387
1955	0.166021505376344
1956	0.230537634408602
1957	0.242795698924731
1958	0.222795698924731
1959	0.210537634408602
1960	0.138279569892473
1961	0.116774193548387
1962	0.14752688172043
1963	0.199784946236559
1964	0.170537634408602
1965	0.118279569892473
1966	0.119784946236559
1967	0.0782795698924732
1968	0.118279569892473
1969	0.152043010752688
1970	0.0320430107526879
1971	0.0227956989247309
1972	0.0335483870967739
1973	0.0627956989247309
1974	0.0520430107526879
1975	0.102795698924731
1976	0.144301075268817
1977	0.0720430107526879
1978	0.0505376344086022
1979	0.121290322580645
1980	0.0597849462365592
1981	0.0305376344086021
1982	0.0827956989247309
1983	0.0412903225806451
1984	-0.000215053763440887
1985	-0.0094623655913979
1986	0.0305376344086021
1987	0.00903225806451613
1988	-0.0339784946236559
1989	-0.0847311827956989
1990	-0.0354838709677419
1991	-0.0769892473118281
1992	-0.12
1993	-0.150752688172043
1994	-0.14
1995	-0.161505376344086
1996	-0.109247311827957
1997	-0.129247311827957
1998	-0.192258064516129
1999	-0.193763440860215
2000	-0.213763440860215
2001	-0.184516129032258
2002	-0.206021505376344
2003	-0.155268817204301
2004	-0.216774193548387
2005	-0.310537634408602
2006	-0.232043010752688
2007	-0.242795698924731
2008	-0.302795698924731
2009	-0.342795698924731
2010	-0.332043010752688
2011	-0.318279569892473
2012	-0.349032258064516
2013	-0.390537634408602
2014	-0.412043010752688
2015	-0.485806451612903
2016	-0.505806451612903
2017	-0.516559139784946
2018	-0.610322580645162
2019	-0.611827956989247
2020	-0.631827956989248
2021	-0.653333333333334
2022	-0.70258064516129
2023	-0.681075268817204
2024	-0.641075268817204
2025	-0.559569892473119
2026	-0.548817204301076
2027	-0.467311827956989
2028	-0.448817204301075
2029	-0.430322580645161
2030	-0.450322580645161
2031	-0.521075268817204
2032	-0.52258064516129
2033	-0.471827956989247
2034	-0.468817204301075
2035	-0.510322580645161
2036	-0.471827956989247
2037	-0.450322580645161
2038	-0.410322580645161
2039	-0.399569892473118
2040	-0.327311827956989
2041	-0.278064516129032
2042	-0.347311827956989
2043	-0.348817204301075
2044	-0.319569892473118
2045	-0.281075268817204
2046	-0.251827956989247
2047	-0.417849462365591
2048	-0.457849462365591
2049	-0.416344086021505
2050	-0.331827956989247
2051	-0.310322580645161
2052	-0.279569892473118
2053	-0.268817204301075
2054	-0.327311827956989
2055	-0.304301075268817
2056	-0.313548387096774
2057	-0.250537634408602
2058	-0.210537634408602
2059	-0.221290322580645
2060	-0.252043010752688
2061	-0.282795698924731
2062	-0.302795698924731
2063	-0.342795698924731
2064	-0.352043010752688
2065	-0.372043010752688
2066	-0.373548387096774
2067	-0.281290322580645
2068	-0.292043010752688
2069	-0.290537634408602
2070	-0.270537634408602
2071	-0.276774193548387
2072	-0.256774193548387
2073	-0.246021505376344
2074	-0.226021505376344
2075	-0.236774193548387
2076	-0.226021505376344
2077	-0.204516129032258
2078	-0.0937634408602152
2079	-0.04
2080	-0.00924731182795702
2081	-0.016989247311828
2082	-0.00473118279569884
2083	0.136774193548387
2084	0.178279569892473
2085	0.16752688172043
2086	0.104516129032258
2087	0.124516129032258
2088	0.133763440860215
2089	0.166021505376344
2090	0.275268817204301
2091	0.284516129032258
2092	0.344516129032258
2093	0.281505376344086
2094	0.241505376344086
2095	0.272258064516129
2096	0.243010752688172
2097	0.221505376344086
2098	0.263010752688172
2099	0.292258064516129
2100	0.313763440860215
2101	0.324516129032258
2102	0.386021505376344
2103	0.344516129032258
2104	0.315268817204301
2105	0.273763440860215
2106	0.293763440860215
2107	0.373763440860215
2108	0.459784946236559
2109	0.42752688172043
2110	0.38752688172043
2111	0.389032258064516
2112	0.398279569892473
2113	0.410537634408602
2114	0.379784946236559
2115	0.34752688172043
2116	0.284516129032258
2117	0.324516129032258
2118	0.261505376344086
2119	0.241505376344086
2120	0.26
2121	0.301505376344086
2122	0.3
2123	0.289247311827957
2124	0.227741935483871
2125	0.195483870967742
2126	0.156989247311828
2127	0.135483870967742
2128	0.106236559139785
2129	0.0877419354838709
2130	0.16
2131	0.18
2132	0.233763440860215
2133	0.253763440860215
2134	0.264516129032258
2135	0.275268817204301
2136	0.255268817204301
2137	0.266021505376344
2138	0.246021505376344
2139	0.246021505376344
2140	0.226021505376344
2141	0.206021505376344
2142	0.235268817204301
2143	0.184516129032258
2144	0.0815053763440859
2145	0.115268817204301
2146	0.116774193548387
2147	0.146021505376344
2148	0.135268817204301
2149	0.0830107526881719
2150	0.0722580645161289
2151	0.0245161290322582
2152	0.0182795698924731
2153	-0.0124731182795699
2154	0.00903225806451613
2155	-0.00172043010752687
2156	-0.0417204301075269
2157	-0.103225806451613
2158	-0.141720430107527
2159	-0.0987096774193548
2160	-0.149462365591398
2161	-0.158709677419355
2162	-0.087956989247312
2163	-0.109462365591398
2164	-0.069462365591398
2165	-0.0817204301075267
2166	-0.103225806451613
2167	-0.123225806451613
2168	-0.136989247311828
2169	-0.166236559139785
2170	-0.227741935483871
2171	-0.244731182795699
2172	-0.224731182795699
2173	-0.346236559139785
2174	-0.375483870967742
2175	-0.323225806451613
2176	-0.284731182795699
2177	-0.244731182795699
2178	-0.306236559139785
2179	-0.266236559139785
2180	-0.298494623655914
2181	-0.316989247311828
2182	-0.273978494623656
2183	-0.284731182795699
2184	-0.27247311827957
2185	-0.21247311827957
2186	-0.160215053763441
2187	-0.0372043010752692
2188	-0.0494623655913977
2189	-0.069462365591398
2190	-0.0187096774193549
2191	-0.058709677419355
2192	0.00279569892473086
2193	0.0520430107526879
2194	0.133548387096774
2195	0.0827956989247309
2196	0.15505376344086
2197	0.153548387096774
2198	0.124301075268817
2199	0.107311827956989
2200	0.0473118279569893
2201	0.119569892473118
2202	0.130322580645161
2203	0.151827956989247
2204	0.14258064516129
2205	0.14258064516129
2206	0.161075268817204
2207	0.179569892473118
2208	0.147311827956989
2209	0.208817204301075
2210	0.218064516129032
2211	0.196559139784946
2212	0.198064516129032
2213	0.210322580645161
2214	0.230322580645161
2215	0.187311827956989
2216	0.270322580645161
2217	0.245806451612903
2218	0.316559139784946
2219	0.265806451612903
2220	0.253548387096774
2221	0.213548387096774
2222	0.192043010752688
2223	0.10752688172043
2224	0.10752688172043
2225	0.116774193548387
2226	0.12752688172043
2227	0.0982795698924732
2228	0.0767741935483872
2229	0.0567741935483872
2230	-0.0262365591397851
2231	-0.027741935483871
2232	0.012258064516129
2233	-0.018494623655914
2234	-0.072258064516129
2235	-0.0737634408602151
2236	-0.063010752688172
2237	-0.072258064516129
2238	-0.133763440860215
2239	-0.166021505376344
2240	-0.136774193548387
2241	-0.126021505376344
2242	-0.104516129032258
2243	-0.176774193548387
2244	-0.124516129032258
2245	-0.083010752688172
2246	-0.0737634408602151
2247	-0.104516129032258
2248	-0.113763440860215
2249	-0.166021505376344
2250	-0.175268817204301
2251	-0.193763440860215
2252	-0.226021505376344
2253	-0.184516129032258
2254	-0.24752688172043
2255	-0.236774193548387
2256	-0.28752688172043
2257	-0.329032258064516
2258	-0.298279569892473
2259	-0.298279569892473
2260	-0.238279569892473
2261	-0.20752688172043
2262	-0.269032258064516
2263	-0.221290322580645
2264	-0.181290322580645
2265	-0.201290322580645
2266	-0.159784946236559
2267	-0.190537634408602
2268	-0.261290322580645
2269	-0.279784946236559
2270	-0.299784946236559
2271	-0.290537634408602
2272	-0.333548387096774
2273	-0.324301075268817
2274	-0.324301075268817
2275	-0.322795698924731
2276	-0.341290322580645
2277	-0.312043010752688
2278	-0.312043010752688
2279	-0.319784946236559
2280	-0.330537634408602
2281	-0.301290322580645
2282	-0.301290322580645
2283	-0.239784946236559
2284	-0.252043010752688
2285	-0.190537634408602
2286	-0.179784946236559
2287	-0.169032258064516
2288	-0.179784946236559
2289	-0.169032258064516
2290	-0.210537634408602
2291	-0.201290322580645
2292	-0.150537634408602
2293	-0.0905376344086022
2294	-0.161290322580645
2295	-0.190537634408602
2296	-0.230537634408602
2297	-0.250537634408602
2298	-0.259784946236559
2299	-0.259784946236559
2300	-0.321290322580645
2301	-0.281290322580645
2302	-0.282795698924731
2303	-0.230537634408602
2304	-0.218279569892473
2305	-0.14752688172043
2306	-0.136774193548387
2307	-0.146021505376344
2308	-0.115268817204301
2309	-0.146021505376344
2310	-0.0767741935483871
2311	-0.109032258064516
2312	-0.192043010752688
2313	-0.170537634408602
2314	-0.221290322580645
2315	-0.139784946236559
2316	-0.12752688172043
2317	-0.190537634408602
2318	-0.230537634408602
2319	-0.262795698924731
2320	-0.270537634408602
2321	-0.250537634408602
2322	-0.312043010752688
2323	-0.313548387096774
2324	-0.313548387096774
2325	-0.373548387096774
2326	-0.322795698924731
2327	-0.342795698924731
2328	-0.424301075268817
2329	-0.473548387096774
2330	-0.402795698924731
2331	-0.39505376344086
2332	-0.35505376344086
2333	-0.365806451612903
2334	-0.304301075268817
2335	-0.252043010752688
2336	-0.238279569892473
2337	-0.22752688172043
2338	-0.226021505376344
2339	-0.28752688172043
2340	-0.215268817204301
2341	-0.196774193548387
2342	-0.176774193548387
2343	-0.20752688172043
2344	-0.24752688172043
2345	-0.206021505376344
2346	-0.195268817204301
2347	-0.155268817204301
2348	-0.104516129032258
2349	-0.176774193548387
2350	-0.175268817204301
2351	-0.216774193548387
2352	-0.186021505376344
2353	-0.206021505376344
2354	-0.133763440860215
2355	-0.184516129032258
2356	-0.164516129032258
2357	-0.186021505376344
2358	-0.135268817204301
2359	-0.146021505376344
2360	-0.115268817204301
2361	-0.106021505376344
2362	-0.156774193548387
2363	-0.104516129032258
2364	-0.030752688172043
2365	0.0184946236559139
2366	0.032258064516129
2367	0.012258064516129
2368	-0.00774193548387103
2369	0.013763440860215
2370	-0.00774193548387103
2371	-0.0584946236559141
2372	-0.0707526881720431
2373	-0.0707526881720431
2374	-0.0815053763440861
2375	-0.050752688172043
2376	-0.0952688172043011
2377	-0.0845161290322581
2378	-0.115268817204301
2379	-0.086021505376344
2380	-0.0567741935483871
2381	-0.096774193548387
2382	-0.086021505376344
2383	-0.104516129032258
2384	-0.101505376344086
2385	-0.0692473118279571
2386	-0.0707526881720431
2387	-0.041505376344086
2388	-0.135268817204301
2389	-0.0737634408602151
2390	-0.0645161290322581
2391	-0.0737634408602151
2392	-0.0645161290322581
2393	-0.0645161290322581
2394	-0.0337634408602152
2395	0.0184946236559139
2396	-0.0137634408602152
2397	-0.0137634408602152
2398	0.0277419354838709
2399	0.0277419354838709
2400	0.0154838709677418
2401	-0.0015053763440861
2402	-0.0230107526881721
2403	0.0277419354838709
2404	0.00623655913978483
2405	0.036989247311828
2406	0.0462365591397849
2407	0.0554838709677418
2408	0.0754838709677418
2409	0.0539784946236559
2410	0.00473118279569884
2411	-0.00752688172043003
2412	-0.0367741935483871
2413	-0.0367741935483871
2414	-0.00602150537634405
2415	0.0262365591397848
2416	0.0877419354838709
2417	0.106236559139785
2418	0.116989247311828
2419	0.16
2420	0.166236559139785
2421	0.207741935483871
2422	0.207741935483871
2423	0.167741935483871
2424	0.167741935483871
2425	0.109247311827957
2426	0.0384946236559139
2427	0.0984946236559139
2428	0.109247311827957
2429	0.0830107526881719
2430	0.103010752688172
2431	0.0630107526881719
2432	0.013763440860215
2433	0.00150537634408598
2434	-0.0692473118279571
2435	-0.0815053763440861
2436	-0.0922580645161291
2437	-0.0645161290322581
2438	-0.109032258064516
2439	-0.129032258064516
2440	-0.138279569892473
2441	-0.149032258064516
2442	-0.210537634408602
2443	-0.189032258064516
2444	-0.221290322580645
2445	-0.229032258064516
2446	-0.230537634408602
2447	-0.178279569892473
2448	-0.159784946236559
2449	-0.189032258064516
2450	-0.176774193548387
2451	-0.189032258064516
2452	-0.218279569892473
2453	-0.269032258064516
2454	-0.341290322580645
2455	-0.39505376344086
2456	-0.332043010752688
2457	-0.341290322580645
2458	-0.289032258064516
2459	-0.249032258064516
2460	-0.226021505376344
2461	-0.113763440860215
2462	-0.010752688172043
2463	-0.00924731182795702
2464	-0.0492473118279571
2465	-0.101505376344086
2466	-0.173763440860215
2467	-0.264516129032258
2468	-0.255268817204301
2469	-0.203010752688172
2470	-0.173763440860215
2471	-0.170752688172043
2472	-0.138494623655914
2473	-0.126236559139785
2474	-0.0494623655913977
2475	0.0150537634408603
2476	0.0443010752688171
2477	-0.087956989247312
2478	-0.06494623655914
2479	-0.066451612903226
2480	-0.0234408602150538
2481	0.0165591397849461
2482	0.0795698924731183
2483	0.0718279569892473
2484	0.0763440860215054
2485	0.0948387096774195
2486	0.157849462365591
2487	0.148602150537634
2488	0.139354838709677
2489	0.128602150537634
2490	0.190107526881721
2491	0.242365591397849
2492	0.191612903225806
2493	0.137849462365591
2494	0.157849462365591
2495	0.188602150537634
2496	0.216344086021505
2497	0.164086021505376
2498	0.14258064516129
2499	0.14258064516129
2500	0.131827956989247
2501	0.221075268817204
2502	0.30258064516129
2503	0.424086021505376
2504	0.424086021505376
2505	0.393333333333333
2506	0.434838709677419
2507	0.42258064516129
2508	0.431827956989247
2509	0.410322580645161
2510	0.385806451612903
2511	0.292043010752688
2512	0.325806451612903
2513	0.427311827956989
2514	0.490322580645161
2515	0.544086021505376
2516	0.605591397849462
2517	0.544086021505376
2518	0.52258064516129
2519	0.521075268817204
2520	0.487311827956989
2521	0.487311827956989
2522	0.361290322580645
2523	0.372043010752688
2524	0.410537634408602
2525	0.432043010752688
2526	0.453548387096774
2527	0.464301075268817
2528	0.462795698924731
2529	0.492043010752688
2530	0.461290322580645
2531	0.410537634408602
2532	0.422795698924731
2533	0.393548387096774
2534	0.313548387096774
2535	0.292043010752688
2536	0.281290322580645
2537	0.282795698924731
2538	0.241290322580645
2539	0.190537634408602
2540	0.221290322580645
2541	0.265806451612903
2542	0.213548387096774
2543	0.164301075268817
2544	0.113548387096774
2545	0.0427956989247309
2546	0.0320430107526879
2547	0.0505376344086022
2548	-0.0309677419354839
2549	-0.000215053763440887
2550	-0.0539784946236559
2551	-0.0647311827956989
2552	-0.116989247311828
2553	-0.124731182795699
2554	-0.113978494623656
2555	-0.0939784946236559
2556	-0.0324731182795699
2557	-0.0402150537634409
2558	0.0212903225806451
2559	0.0105376344086021
2560	-0.0094623655913979
2561	-0.0202150537634409
2562	-0.0524731182795699
2563	-0.0939784946236559
2564	-0.106236559139785
2565	-0.0924731182795697
2566	-0.0939784946236559
2567	-0.0232258064516129
2568	0.0167741935483872
2569	0.00451612903225818
2570	0.0645161290322582
2571	0.0445161290322582
2572	0.0845161290322581
2573	0.0522580645161289
2574	0.136774193548387
2575	0.146021505376344
2576	0.124516129032258
2577	0.0830107526881719
2578	0.0952688172043011
2579	0.126021505376344
2580	0.135268817204301
2581	0.135268817204301
2582	0.113763440860215
2583	0.126021505376344
2584	0.155268817204301
2585	0.0952688172043011
2586	0.115268817204301
2587	0.0937634408602149
2588	0.12752688172043
2589	0.153763440860215
2590	0.0922580645161289
2591	0.103010752688172
2592	0.0815053763440859
2593	0.00924731182795691
2594	0
2595	0.023010752688172
2596	0.0245161290322582
2597	0.0352688172043012
2598	0.00602150537634416
2599	0.0245161290322582
2600	-0.0447311827956989
2601	-0.0847311827956989
2602	-0.0724731182795699
2603	-0.124731182795699
2604	-0.187741935483871
2605	-0.178494623655914
2606	-0.26
2607	-0.24
2608	-0.258494623655914
2609	-0.216989247311828
2610	-0.238494623655914
2611	-0.269247311827957
2612	-0.258494623655914
2613	-0.209247311827957
2614	-0.2
2615	-0.192258064516129
2616	-0.149247311827957
2617	-0.0584946236559141
2618	-0.138494623655914
2619	-0.14
2620	-0.12
2621	-0.133763440860215
2622	-0.184516129032258
2623	-0.215268817204301
2624	-0.269032258064516
2625	-0.278279569892473
2626	-0.278279569892473
2627	-0.26752688172043
2628	-0.296774193548387
2629	-0.24752688172043
2630	-0.269032258064516
2631	-0.281290322580645
2632	-0.292043010752688
2633	-0.322795698924731
2634	-0.292043010752688
2635	-0.341290322580645
2636	-0.312043010752688
2637	-0.272043010752688
2638	-0.304301075268817
2639	-0.324301075268817
2640	-0.313548387096774
2641	-0.312043010752688
2642	-0.272043010752688
2643	-0.259784946236559
2644	-0.278279569892473
2645	-0.349032258064516
2646	-0.329032258064516
2647	-0.286021505376344
2648	-0.221505376344086
2649	-0.293763440860215
2650	-0.284516129032258
2651	-0.336774193548387
2652	-0.359784946236559
2653	-0.369032258064516
2654	-0.318279569892473
2655	-0.338279569892473
2656	-0.338279569892473
2657	-0.283010752688172
2658	-0.243010752688172
2659	-0.283010752688172
2660	-0.281505376344086
2661	-0.270752688172043
2662	-0.212258064516129
2663	-0.253763440860215
2664	-0.252258064516129
2665	-0.281505376344086
2666	-0.281505376344086
2667	-0.343010752688172
2668	-0.281505376344086
2669	-0.238494623655914
2670	-0.229247311827957
2671	-0.189247311827957
2672	-0.147741935483871
2673	-0.147741935483871
2674	-0.196989247311828
2675	-0.184731182795699
2676	-0.193978494623656
2677	-0.213978494623656
2678	-0.173978494623656
2679	-0.163225806451613
2680	-0.155483870967742
2681	-0.0832258064516129
2682	-0.0739784946236559
2683	-0.0954838709677419
2684	-0.190752688172043
2685	-0.232258064516129
2686	-0.190752688172043
2687	-0.209247311827957
2688	-0.227741935483871
2689	-0.26
2690	-0.301505376344086
2691	-0.310752688172043
2692	-0.266236559139785
2693	-0.34
2694	-0.389247311827957
2695	-0.316989247311828
2696	-0.289247311827957
2697	-0.34
2698	-0.358494623655914
2699	-0.356989247311828
2700	-0.318494623655914
2701	-0.318494623655914
2702	-0.296989247311828
2703	-0.203225806451613
2704	-0.235483870967742
2705	-0.236989247311828
2706	-0.307741935483871
2707	-0.326236559139785
2708	-0.336989247311828
2709	-0.356989247311828
2710	-0.287741935483871
2711	-0.258494623655914
2712	-0.227741935483871
2713	-0.187741935483871
2714	-0.186236559139785
2715	-0.176989247311828
2716	-0.11247311827957
2717	-0.175483870967742
2718	-0.153978494623656
2719	-0.193978494623656
2720	-0.161720430107527
2721	-0.069462365591398
2722	-0.109462365591398
2723	-0.0787096774193548
2724	-0.0894623655913978
2725	-0.117204301075269
2726	-0.157204301075269
2727	-0.115698924731183
2728	-0.261720430107527
2729	-0.21247311827957
2730	-0.15247311827957
2731	-0.173978494623656
2732	-0.163225806451613
2733	-0.0817204301075267
2734	-0.0202150537634409
2735	-0.163225806451613
2736	-0.181720430107527
2737	-0.190967741935484
2738	-0.19247311827957
2739	-0.244731182795699
2740	-0.244731182795699
2741	-0.213978494623656
2742	-0.163225806451613
2743	-0.184731182795699
2744	-0.204731182795699
2745	-0.184731182795699
2746	-0.193978494623656
2747	-0.344731182795699
2748	-0.364731182795699
2749	-0.363225806451613
2750	-0.341720430107527
2751	-0.413978494623656
2752	-0.467741935483871
2753	-0.476989247311828
2754	-0.509247311827957
2755	-0.476989247311828
2756	-0.475483870967742
2757	-0.495483870967742
2758	-0.466236559139785
2759	-0.476989247311828
2760	-0.415483870967742
2761	-0.384731182795699
2762	-0.284731182795699
2763	-0.264731182795699
2764	-0.193978494623656
2765	-0.160215053763441
2766	-0.107956989247312
2767	-0.126451612903226
2768	-0.186451612903226
2769	-0.227956989247312
2770	-0.289462365591398
2771	-0.189462365591398
2772	-0.189462365591398
2773	-0.160215053763441
2774	-0.187956989247312
2775	-0.147956989247312
2776	-0.158709677419355
2777	-0.227956989247312
2778	-0.217204301075269
2779	-0.214193548387097
2780	-0.163440860215054
2781	-0.152688172043011
2782	-0.141935483870968
2783	-0.000430107526881995
2784	-0.072688172043011
2785	-0.115698924731183
2786	-0.0741935483870968
2787	-0.0741935483870968
2788	-0.0341935483870968
2789	0.0688172043010753
2790	0.0595698924731181
2791	0.0410752688172042
2792	0.0703225806451611
2793	-0.000430107526881995
2794	-0.0204301075268818
2795	0.0410752688172042
2796	0.010322580645161
2797	0.00881720430107524
2798	-0.0604301075268818
2799	-0.101935483870968
2800	-0.171182795698925
2801	-0.234193548387097
2802	-0.261935483870968
2803	-0.314193548387097
2804	-0.292688172043011
2805	-0.283440860215054
2806	-0.251182795698925
2807	-0.220430107526882
2808	-0.252688172043011
2809	-0.252688172043011
2810	-0.172688172043011
2811	-0.180430107526882
2812	-0.17741935483871
2813	-0.128172043010753
2814	-0.208172043010753
2815	-0.208172043010753
2816	-0.258924731182796
2817	-0.269677419354839
2818	-0.269677419354839
2819	-0.300430107526882
2820	-0.260430107526882
2821	-0.209677419354839
2822	-0.251182795698925
2823	-0.201935483870968
2824	-0.212688172043011
2825	-0.315698924731183
2826	-0.283440860215054
2827	-0.267956989247312
2828	-0.300215053763441
2829	-0.258709677419355
2830	-0.237204301075269
2831	-0.266451612903226
2832	-0.286451612903226
2833	-0.297204301075269
2834	-0.215698924731183
2835	-0.207956989247312
2836	-0.117204301075269
2837	-0.106451612903226
2838	-0.140215053763441
2839	-0.0372043010752692
2840	-0.00795698924731214
2841	-0.0849462365591398
2842	-0.117204301075269
2843	-0.137204301075269
2844	-0.146451612903226
2845	-0.197204301075269
2846	-0.269462365591398
2847	-0.31247311827957
2848	-0.313978494623656
2849	-0.304731182795699
2850	-0.267741935483871
2851	-0.250752688172043
2852	-0.156989247311828
2853	-0.153978494623656
2854	-0.110967741935484
2855	-0.0479569892473122
2856	-0.00645161290322593
2857	-0.077204301075269
2858	-0.067956989247312
2859	-0.107956989247312
2860	-0.0864516129032262
2861	-0.066451612903226
2862	-0.0449462365591398
2863	-0.0234408602150538
2864	0.0180645161290323
2865	-0.0234408602150538
2866	-0.0341935483870968
2867	-0.077204301075269
2868	-0.118709677419355
2869	-0.129462365591398
2870	-0.200215053763441
2871	-0.177204301075269
2872	-0.147956989247312
2873	-0.149462365591398
2874	-0.198709677419355
2875	-0.260215053763441
2876	-0.260215053763441
2877	-0.161720430107527
2878	-0.129462365591398
2879	-0.077204301075269
2880	-0.0356989247311827
2881	0.0243010752688171
2882	0.0350537634408601
2883	0.0458064516129031
2884	0.0350537634408601
2885	-0.0264516129032262
2886	0.00430107526881729
2887	0.0335483870967739
2888	-0.0602150537634407
2889	-0.0924731182795697
2890	-0.153978494623656
2891	-0.227741935483871
2892	-0.329247311827957
2893	-0.356989247311828
2894	-0.387741935483871
2895	-0.375483870967742
2896	-0.467741935483871
2897	-0.515483870967742
2898	-0.567741935483871
2899	-0.62
2900	-0.629247311827957
2901	-0.58
2902	-0.536989247311828
2903	-0.47247311827957
2904	-0.430967741935484
2905	-0.358709677419355
2906	-0.278709677419355
2907	-0.310967741935484
2908	-0.340215053763441
2909	-0.438709677419355
2910	-0.327956989247312
2911	-0.278709677419355
2912	-0.310967741935484
2913	-0.341720430107527
2914	-0.353978494623656
2915	-0.416989247311828
2916	-0.375483870967742
2917	-0.355483870967742
2918	-0.384731182795699
2919	-0.344731182795699
2920	-0.281720430107527
2921	-0.27247311827957
2922	-0.281720430107527
2923	-0.260215053763441
2924	-0.238709677419355
2925	-0.249462365591398
2926	-0.263225806451613
2927	-0.223225806451613
2928	-0.15247311827957
2929	-0.135483870967742
2930	-0.116989247311828
2931	-0.0354838709677419
2932	-0.0647311827956989
2933	0.033763440860215
2934	0.033763440860215
2935	0.0367741935483872
2936	0.0152688172043012
2937	0.0675268817204302
2938	-0.0154838709677418
2939	-0.0692473118279571
2940	-0.0707526881720431
2941	-0.101505376344086
2942	-0.193763440860215
2943	-0.163010752688172
2944	-0.153763440860215
2945	-0.0645161290322581
2946	-0.0845161290322581
2947	-0.136774193548387
2948	-0.14752688172043
2949	-0.136774193548387
2950	-0.146021505376344
2951	-0.052258064516129
2952	-0.0952688172043011
2953	-0.104516129032258
2954	-0.0537634408602151
2955	-0.02
2956	-0.152258064516129
2957	-0.109247311827957
2958	-0.0569892473118281
2959	-0.0662365591397851
2960	-0.0769892473118281
2961	-0.016989247311828
2962	0.0367741935483872
2963	0.0182795698924731
2964	0.0582795698924732
2965	0.139784946236559
2966	0.0612903225806452
2967	-0.0109677419354839
2968	0.0690322580645162
2969	0.0490322580645162
2970	0.0367741935483872
2971	0.0460215053763442
2972	0.0367741935483872
2973	-0.0569892473118281
2974	0.00451612903225818
2975	-0.0462365591397851
2976	-0.0632258064516129
2977	-0.0632258064516129
2978	-0.0417204301075269
2979	-0.0309677419354839
2980	-0.0109677419354839
2981	0.0520430107526879
2982	0.0735483870967739
2983	0.107311827956989
2984	0.161075268817204
2985	0.20258064516129
2986	0.201075268817204
2987	0.148817204301075
2988	0.170322580645161
2989	0.121075268817204
2990	0.0580645161290323
2991	0.0350537634408601
2992	0.165806451612903
2993	0.0843010752688171
2994	0.00279569892473086
2995	-0.0602150537634407
2996	-0.0202150537634409
2997	-0.0709677419354837
2998	-0.0709677419354837
2999	-0.0724731182795699
3000	-0.141720430107527
3001	-0.130967741935484
3002	-0.0939784946236559
3003	-0.113978494623656
3004	-0.0939784946236559
3005	-0.115483870967742
3006	-0.106236559139785
3007	-0.0677419354838711
3008	-0.0984946236559141
3009	-0.0369892473118281
3010	-0.0677419354838711
3011	-0.00623655913978505
3012	0.032258064516129
3013	0.0352688172043012
3014	0.053763440860215
3015	0.043010752688172
3016	-0.027741935483871
3017	-0.0492473118279571
3018	-0.0937634408602152
3019	-0.136774193548387
3020	-0.199784946236559
3021	-0.230537634408602
3022	-0.186021505376344
3023	-0.20752688172043
3024	-0.250537634408602
3025	-0.192043010752688
3026	-0.121290322580645
3027	-0.121290322580645
3028	-0.153548387096774
3029	-0.122795698924731
3030	-0.144301075268817
3031	-0.113548387096774
3032	-0.144301075268817
3033	-0.109032258064516
3034	-0.162795698924731
3035	-0.142795698924731
3036	-0.124301075268817
3037	-0.156559139784946
3038	-0.156559139784946
3039	-0.127311827956989
3040	-0.125806451612903
3041	-0.15505376344086
3042	-0.153548387096774
3043	-0.233548387096774
3044	-0.204301075268817
3045	-0.233548387096774
3046	-0.264301075268817
3047	-0.293548387096774
3048	-0.282795698924731
3049	-0.242795698924731
3050	-0.219784946236559
3051	-0.238279569892473
3052	-0.195268817204301
3053	-0.196774193548387
3054	-0.184516129032258
3055	-0.155268817204301
3056	-0.152258064516129
3057	-0.173763440860215
3058	-0.176774193548387
3059	-0.135268817204301
3060	-0.113763440860215
3061	-0.101505376344086
3062	-0.12
3063	-0.141505376344086
3064	-0.161505376344086
3065	-0.123010752688172
3066	-0.123010752688172
3067	-0.144516129032258
3068	-0.166021505376344
3069	-0.169032258064516
3070	-0.138279569892473
3071	-0.14752688172043
3072	-0.12752688172043
3073	-0.106021505376344
3074	-0.0645161290322581
3075	-0.0952688172043011
3076	-0.0752688172043011
3077	-0.0475268817204301
3078	-0.0490322580645162
3079	-0.0505376344086022
3080	-0.0705376344086022
3081	-0.0612903225806452
3082	-0.00129032258064521
3083	0.0572043010752687
3084	0.0249462365591396
3085	-0.0273118279569892
3086	-0.0288172043010754
3087	-0.0103225806451613
3088	-0.0133333333333334
3089	-0.0655913978494623
3090	-0.0670967741935484
3091	-0.0855913978494625
3092	-0.0778494623655914
3093	-0.108602150537634
3094	-0.119354838709677
3095	-0.13010752688172
3096	-0.131612903225806
3097	-0.133118279569893
3098	-0.0823655913978494
3099	-0.0916129032258065
3100	-0.10236559139785
3101	-0.140860215053763
3102	-0.120860215053763
3103	-0.11010752688172
3104	-0.11010752688172
3105	-0.119354838709677
3106	-0.0993548387096774
3107	-0.140860215053763
3108	-0.13010752688172
3109	-0.17010752688172
3110	-0.17010752688172
3111	-0.159354838709677
3112	-0.200860215053764
3113	-0.228602150537635
3114	-0.228602150537635
3115	-0.188602150537635
3116	-0.187096774193548
3117	-0.217849462365591
3118	-0.259354838709677
3119	-0.300860215053763
3120	-0.279354838709677
3121	-0.227096774193548
3122	-0.297849462365591
3123	-0.305591397849462
3124	-0.334838709677419
3125	-0.34258064516129
3126	-0.404086021505376
3127	-0.424086021505376
3128	-0.424086021505376
3129	-0.405591397849462
3130	-0.405591397849462
3131	-0.444086021505376
3132	-0.42258064516129
3133	-0.46258064516129
3134	-0.485591397849462
3135	-0.44258064516129
3136	-0.471827956989247
3137	-0.430322580645161
3138	-0.430322580645161
3139	-0.396559139784946
3140	-0.407311827956989
3141	-0.398064516129032
3142	-0.427311827956989
3143	-0.376559139784946
3144	-0.425806451612903
3145	-0.385806451612903
3146	-0.362795698924731
3147	-0.362795698924731
3148	-0.372043010752688
3149	-0.35505376344086
3150	-0.353548387096774
3151	-0.333548387096774
3152	-0.273548387096774
3153	-0.25505376344086
3154	-0.202795698924731
3155	-0.212043010752688
3156	-0.242795698924731
3157	-0.222795698924731
3158	-0.152043010752688
3159	-0.124301075268817
3160	-0.0643010752688173
3161	-0.00430107526881729
3162	0.0156989247311827
3163	0.0664516129032257
3164	0.0864516129032257
3165	0.106451612903226
3166	0.0879569892473118
3167	0.137204301075269
3168	0.126451612903226
3169	0.146451612903226
3170	0.177204301075269
3171	0.134193548387097
3172	0.18494623655914
3173	0.192688172043011
3174	0.234193548387097
3175	0.240430107526882
3176	0.291182795698925
3177	0.321935483870968
3178	0.272688172043011
3179	0.241935483870968
3180	0.300430107526882
3181	0.281935483870968
3182	0.228172043010753
3183	0.246666666666667
3184	0.286666666666667
3185	0.29741935483871
3186	0.295913978494624
3187	0.308172043010753
3188	0.27741935483871
3189	0.289677419354839
3190	0.260430107526882
3191	0.291182795698925
3192	0.332688172043011
3193	0.291182795698925
3194	0.249677419354839
3195	0.269677419354839
3196	0.200430107526882
3197	0.128172043010753
3198	0.148172043010753
3199	0.0881720430107528
3200	0.109677419354839
3201	0.131182795698925
3202	0.120430107526882
3203	0.0696774193548386
3204	0.0696774193548386
3205	0.0804301075268816
3206	0.0496774193548386
3207	-0.0103225806451613
3208	0.00344086021505363
3209	0.0156989247311827
3210	-0.0150537634408603
3211	0.00645161290322571
3212	-0.00129032258064521
3213	-0.0212903225806452
3214	0.0187096774193548
3215	0.0509677419354838
3216	-0.00752688172043003
3217	0.0324731182795699
3218	0.0632258064516129
3219	0.0739784946236559
3220	0.0769892473118279
3221	-0.0122580645161291
3222	-0.0015053763440861
3223	-0.0230107526881721
3224	0.00774193548387092
3225	-0.0537634408602151
3226	-0.0660215053763441
3227	-0.0675268817204301
3228	-0.129032258064516
3229	-0.14752688172043
3230	-0.178279569892473
3231	-0.249032258064516
3232	-0.169032258064516
3233	-0.116774193548387
3234	-0.0952688172043011
3235	-0.0460215053763441
3236	-0.12752688172043
3237	-0.16752688172043
3238	-0.219784946236559
3239	-0.261290322580645
3240	-0.281290322580645
3241	-0.292043010752688
3242	-0.279784946236559
3243	-0.186021505376344
3244	-0.230537634408602
3245	-0.232043010752688
3246	-0.253548387096774
3247	-0.332043010752688
3248	-0.373548387096774
3249	-0.39505376344086
3250	-0.344301075268817
3251	-0.405806451612903
3252	-0.43505376344086
3253	-0.465806451612903
3254	-0.47505376344086
3255	-0.442795698924731
3256	-0.465806451612903
3257	-0.364301075268817
3258	-0.43505376344086
3259	-0.45505376344086
3260	-0.496559139784946
3261	-0.43505376344086
3262	-0.424301075268817
3263	-0.402795698924731
3264	-0.341290322580645
3265	-0.319784946236559
3266	-0.350537634408602
3267	-0.299784946236559
3268	-0.276774193548387
3269	-0.276774193548387
3270	-0.296774193548387
3271	-0.318279569892473
3272	-0.28752688172043
3273	-0.26752688172043
3274	-0.235268817204301
3275	-0.175268817204301
3276	-0.224516129032258
3277	-0.295268817204301
3278	-0.275268817204301
3279	-0.358279569892473
3280	-0.358279569892473
3281	-0.399784946236559
3282	-0.34752688172043
3283	-0.310537634408602
3284	-0.281290322580645
3285	-0.250537634408602
3286	-0.249032258064516
3287	-0.16752688172043
3288	-0.0797849462365592
3289	-0.0782795698924732
3290	-0.0675268817204301
3291	-0.138279569892473
3292	-0.138279569892473
3293	-0.170537634408602
3294	-0.130537634408602
3295	-0.0797849462365592
3296	-0.0582795698924732
3297	-0.0582795698924732
3298	-0.0582795698924732
3299	-0.0982795698924732
3300	-0.139784946236559
3301	-0.0997849462365592
3302	-0.0797849462365592
3303	-0.0797849462365592
3304	-0.0767741935483871
3305	-0.12752688172043
3306	-0.158279569892473
3307	-0.178279569892473
3308	-0.118279569892473
3309	-0.139784946236559
3310	-0.149032258064516
3311	-0.166021505376344
3312	-0.086021505376344
3313	-0.0230107526881721
3314	-0.104516129032258
3315	-0.0952688172043011
3316	-0.156774193548387
3317	-0.146021505376344
3318	-0.124516129032258
3319	-0.112258064516129
3320	-0.0922580645161291
3321	-0.101505376344086
3322	-0.112258064516129
3323	-0.164516129032258
3324	-0.204516129032258
3325	-0.246021505376344
3326	-0.244516129032258
3327	-0.244516129032258
3328	-0.170752688172043
3329	-0.190752688172043
3330	-0.196989247311828
3331	-0.155483870967742
3332	-0.204731182795699
3333	-0.163225806451613
3334	-0.173978494623656
3335	-0.15247311827957
3336	-0.109462365591398
3337	-0.160215053763441
3338	-0.066451612903226
3339	-0.077204301075269
3340	-0.120215053763441
3341	-0.120215053763441
3342	-0.150967741935484
3343	-0.0849462365591398
3344	-0.114193548387097
3345	-0.123440860215054
3346	-0.16494623655914
3347	-0.103440860215054
3348	-0.151182795698925
3349	-0.112688172043011
3350	-0.0526881720430108
3351	-0.00967741935483879
3352	0.0733333333333333
3353	0.0948387096774195
3354	0.0718279569892473
3355	0.0595698924731181
3356	0.0488172043010751
3357	-0.0819354838709678
3358	-0.0819354838709678
3359	-0.121935483870968
3360	-0.0804301075268818
3361	-0.061935483870968
3362	-0.0849462365591398
3363	-0.0234408602150538
3364	-0.077204301075269
3365	-0.0634408602150538
3366	-0.066451612903226
3367	-0.0972043010752692
3368	-0.0264516129032262
3369	-0.067956989247312
3370	-0.0787096774193548
3371	-0.069462365591398
3372	-0.101720430107527
3373	-0.0939784946236559
3374	-0.166236559139785
3375	-0.173978494623656
3376	-0.255483870967742
3377	-0.204731182795699
3378	-0.153978494623656
3379	-0.229247311827957
3380	-0.22
3381	-0.189247311827957
3382	-0.0692473118279571
3383	-0.0800000000000001
3384	-0.0800000000000001
3385	-0.0139784946236559
3386	-0.0109677419354839
3387	-0.000215053763440887
3388	-0.0724731182795699
3389	-0.0724731182795699
3390	-0.090967741935484
3391	-0.120215053763441
3392	-0.077204301075269
3393	-0.00795698924731214
3394	-0.0309677419354839
3395	-0.0109677419354839
3396	-0.00172043010752687
3397	0.0612903225806452
3398	0.0612903225806452
3399	0.0397849462365591
3400	0.0705376344086022
3401	0.141290322580645
3402	0.182795698924731
3403	0.202795698924731
3404	0.224301075268817
3405	0.233548387096774
3406	0.276559139784946
3407	0.244301075268817
3408	0.276559139784946
3409	0.318064516129032
3410	0.359569892473118
3411	0.358064516129032
3412	0.478064516129032
3413	0.427311827956989
3414	0.456559139784946
3415	0.450322580645161
3416	0.428817204301075
3417	0.430322580645161
3418	0.378064516129032
3419	0.327311827956989
3420	0.365806451612903
3421	0.310537634408602
3422	0.28752688172043
3423	0.204516129032258
3424	0.246021505376344
3425	0.226021505376344
3426	0.235268817204301
3427	0.275268817204301
3428	0.212258064516129
3429	0.283010752688172
3430	0.286021505376344
3431	0.286021505376344
3432	0.298279569892473
3433	0.26752688172043
3434	0.26752688172043
3435	0.258279569892473
3436	0.282795698924731
3437	0.229032258064516
3438	0.0967741935483872
3439	0.0567741935483872
3440	0.00602150537634416
3441	-0.00172043010752687
3442	-0.0109677419354839
3443	0.0412903225806451
3444	-0.058709677419355
3445	-0.0787096774193548
3446	-0.0894623655913978
3447	-0.058709677419355
3448	-0.058709677419355
3449	-0.0279569892473119
3450	-0.067956989247312
3451	-0.0217204301075269
3452	-0.0324731182795699
3453	-0.0324731182795699
3454	-0.00172043010752687
3455	0.0167741935483872
3456	0.0167741935483872
3457	-0.0354838709677419
3458	-0.0569892473118281
3459	-0.0262365591397851
3460	-0.0769892473118281
3461	-0.107741935483871
3462	-0.0984946236559141
3463	-0.12
3464	-0.1
3465	-0.109247311827957
3466	-0.0907526881720431
3467	-0.0707526881720431
3468	-0.0600000000000001
3469	-0.0600000000000001
3470	-0.0369892473118281
3471	-0.018494623655914
3472	-0.061505376344086
3473	-0.02
3474	0.0707526881720429
3475	0.089247311827957
3476	0.0662365591397848
3477	0.116989247311828
3478	0.103225806451613
3479	0.0832258064516129
3480	0.129462365591398
3481	0.160215053763441
3482	0.138709677419355
3483	0.158709677419355
3484	0.129462365591398
3485	0.107956989247312
3486	0.147956989247312
3487	0.138709677419355
3488	0.180215053763441
3489	0.160215053763441
3490	0.163225806451613
3491	0.133978494623656
3492	0.123225806451613
3493	0.195483870967742
3494	0.216989247311828
3495	0.246236559139785
3496	0.264731182795699
3497	0.284731182795699
3498	0.306236559139785
3499	0.318494623655914
3500	0.307741935483871
3501	0.266236559139785
3502	0.255483870967742
3503	0.275483870967742
3504	0.241720430107527
3505	0.250967741935484
3506	0.227956989247312
3507	0.147956989247312
3508	0.137204301075269
3509	0.0449462365591397
3510	0.0649462365591397
3511	0.00494623655913973
3512	0.0479569892473118
3513	0.00645161290322571
3514	0.0279569892473118
3515	0.0494623655913978
3516	0.101720430107527
3517	0.0602150537634408
3518	0.0602150537634408
3519	0.0187096774193548
3520	-0.0135483870967743
3521	0.0294623655913978
3522	0.000215053763440776
3523	-0.0197849462365592
3524	0.0124731182795699
3525	0.00172043010752676
3526	-0.0212903225806452
3527	0.0524731182795699
3528	0.0847311827956988
3529	-0.0167741935483871
3530	-0.0260215053763441
3531	-0.096774193548387
3532	-0.096774193548387
3533	-0.0245161290322582
3534	-0.0552688172043012
3535	-0.0260215053763441
3536	-0.0337634408602152
3537	-0.0137634408602152
3538	-0.0122580645161291
3539	-0.021505376344086
3540	-0.052258064516129
3541	-0.050752688172043
3542	-0.0907526881720431
3543	0.032258064516129
3544	0.0399999999999999
3545	0.090752688172043
3546	0.010752688172043
3547	0.0399999999999999
3548	0.0277419354838709
3549	0.00473118279569884
3550	-0.00602150537634405
3551	-0.0367741935483871
3552	-0.0582795698924732
3553	-0.0690322580645162
3554	-0.0582795698924732
3555	-0.0675268817204301
3556	0.0262365591397848
3557	0.013978494623656
3558	0.0247311827956989
3559	0.0554838709677418
3560	-0.00602150537634405
3561	0.0324731182795699
3562	0.0339784946236559
3563	-0.0182795698924731
3564	-0.0812903225806452
3565	0.00322580645161297
3566	0.0432258064516129
3567	0.0339784946236559
3568	0.0754838709677418
3569	0.0339784946236559
3570	0.056989247311828
3571	0.0169892473118279
3572	0.058494623655914
3573	0.058494623655914
3574	0.089247311827957
3575	0.067741935483871
3576	0.109247311827957
3577	0.12
3578	0.149247311827957
3579	0.0954838709677418
3580	0.16
3581	0.170752688172043
3582	0.178494623655914
3583	0.2
3584	0.221505376344086
3585	0.172258064516129
3586	0.163010752688172
3587	0.192258064516129
3588	0.172258064516129
3589	0.173763440860215
3590	0.123010752688172
3591	0.152258064516129
3592	0.0984946236559139
3593	0.110752688172043
3594	0.138494623655914
3595	0.116989247311828
3596	0.104731182795699
3597	0.0754838709677418
3598	0.0954838709677418
3599	0.0632258064516129
3600	0.113978494623656
3601	0.0694623655913978
3602	0.0679569892473117
3603	0.107956989247312
3604	0.109462365591398
3605	0.110967741935484
3606	0.0309677419354838
3607	0.0432258064516129
3608	0.0232258064516129
3609	0.107741935483871
3610	0.0877419354838709
3611	0.056989247311828
3612	0.036989247311828
3613	0.013978494623656
3614	0.0339784946236559
3615	0.0232258064516129
3616	-0.0690322580645162
3617	-0.0382795698924732
3618	0.0247311827956989
3619	0.013978494623656
3620	0.00172043010752676
3621	-0.0275268817204301
3622	0.00322580645161297
3623	-0.0167741935483871
3624	-0.0567741935483871
3625	-0.0445161290322582
3626	-0.0537634408602151
3627	-0.0537634408602151
3628	-0.032258064516129
3629	-0.0337634408602152
3630	-0.021505376344086
3631	0.00150537634408598
3632	0.0445161290322582
3633	0.0952688172043011
3634	0.113763440860215
3635	0.189032258064516
3636	0.10752688172043
3637	0.149032258064516
3638	0.150537634408602
3639	0.202795698924731
3640	0.221290322580645
3641	0.209032258064516
3642	0.28752688172043
3643	0.284516129032258
3644	0.273763440860215
3645	0.209247311827957
3646	0.250752688172043
3647	0.293763440860215
3648	0.273763440860215
3649	0.253763440860215
3650	0.233763440860215
3651	0.28752688172043
3652	0.32752688172043
3653	0.316774193548387
3654	0.30752688172043
3655	0.329032258064516
3656	0.309032258064516
3657	0.390537634408602
3658	0.379784946236559
3659	0.389032258064516
3660	0.410537634408602
3661	0.369032258064516
3662	0.379784946236559
3663	0.349032258064516
3664	0.329032258064516
3665	0.319784946236559
3666	0.289032258064516
3667	0.278279569892473
3668	0.269032258064516
3669	0.196774193548387
3670	0.209032258064516
3671	0.175268817204301
3672	0.24752688172043
3673	0.229032258064516
3674	0.249032258064516
3675	0.230537634408602
3676	0.230537634408602
3677	0.230537634408602
3678	0.250537634408602
3679	0.324301075268817
3680	0.333548387096774
3681	0.33505376344086
3682	0.313548387096774
3683	0.272043010752688
3684	0.272043010752688
3685	0.262795698924731
3686	0.242795698924731
3687	0.179784946236559
3688	0.158279569892473
3689	0.170537634408602
3690	0.156774193548387
3691	0.116774193548387
3692	0.0967741935483872
3693	0.136774193548387
3694	0.126021505376344
3695	0.178279569892473
3696	0.219784946236559
3697	0.279784946236559
3698	0.290537634408602
3699	0.299784946236559
3700	0.298279569892473
3701	0.286021505376344
3702	0.264516129032258
3703	0.266021505376344
3704	0.296774193548387
3705	0.32752688172043
3706	0.32752688172043
3707	0.256774193548387
3708	0.195268817204301
3709	0.224516129032258
3710	0.163010752688172
3711	0.0599999999999999
3712	0.0492473118279569
3713	0.058494623655914
3714	0.069247311827957
3715	-0.0230107526881721
3716	-0.0015053763440861
3717	0.00924731182795691
3718	-0.00924731182795702
3719	0.0630107526881719
3720	0.0722580645161289
3721	0.101505376344086
3722	0.152258064516129
3723	0.184516129032258
3724	0.184516129032258
3725	0.113763440860215
3726	0.113763440860215
3727	0.123010752688172
3728	0.103010752688172
3729	0.0922580645161289
3730	0.0830107526881719
3731	0.0199999999999999
3732	-0.032258064516129
3733	0.010752688172043
3734	0.0815053763440859
3735	0.104516129032258
3736	0.0845161290322581
3737	0.0445161290322582
3738	0.053763440860215
3739	0.010752688172043
3740	-0.0122580645161291
3741	0.00774193548387092
3742	-0.063010752688172
3743	-0.0445161290322582
3744	-0.0337634408602152
3745	-0.126021505376344
3746	-0.126021505376344
3747	-0.0367741935483871
3748	-0.0260215053763441
3749	-0.0767741935483871
3750	-0.096774193548387
3751	-0.0475268817204301
3752	-0.0997849462365592
3753	-0.110537634408602
3754	-0.0690322580645162
3755	-0.161290322580645
3756	-0.172043010752688
3757	-0.232043010752688
3758	-0.252043010752688
3759	-0.273548387096774
3760	-0.292043010752688
3761	-0.264301075268817
3762	-0.250537634408602
3763	-0.249032258064516
3764	-0.189032258064516
3765	-0.199784946236559
3766	-0.210537634408602
3767	-0.169032258064516
3768	-0.170537634408602
3769	-0.313548387096774
3770	-0.345806451612903
3771	-0.407311827956989
3772	-0.387311827956989
3773	-0.345806451612903
3774	-0.33505376344086
3775	-0.342795698924731
3776	-0.372043010752688
3777	-0.392043010752688
3778	-0.321290322580645
3779	-0.278279569892473
3780	-0.238279569892473
3781	-0.16752688172043
3782	-0.116774193548387
3783	-0.116774193548387
3784	-0.0952688172043011
3785	-0.0645161290322581
3786	-0.126021505376344
3787	-0.175268817204301
3788	-0.184516129032258
3789	-0.195268817204301
3790	-0.218279569892473
3791	-0.169032258064516
3792	-0.155268817204301
3793	-0.052258064516129
3794	-0.041505376344086
3795	-0.103010752688172
3796	-0.0737634408602151
3797	-0.0937634408602152
3798	-0.136774193548387
3799	-0.179784946236559
3800	-0.18752688172043
3801	-0.18752688172043
3802	-0.176774193548387
3803	-0.236774193548387
3804	-0.173763440860215
3805	-0.136774193548387
3806	-0.195268817204301
3807	-0.155268817204301
3808	-0.164516129032258
3809	-0.196774193548387
3810	-0.216774193548387
3811	-0.156774193548387
3812	-0.135268817204301
3813	-0.143010752688172
3814	-0.244516129032258
3815	-0.233763440860215
3816	-0.264516129032258
3817	-0.275268817204301
3818	-0.244516129032258
3819	-0.263010752688172
3820	-0.295268817204301
3821	-0.286021505376344
3822	-0.236774193548387
3823	-0.298279569892473
3824	-0.270537634408602
3825	-0.270537634408602
3826	-0.312043010752688
3827	-0.26752688172043
3828	-0.270537634408602
3829	-0.353548387096774
3830	-0.333548387096774
3831	-0.322795698924731
3832	-0.290537634408602
3833	-0.319784946236559
3834	-0.309032258064516
3835	-0.24752688172043
3836	-0.218279569892473
3837	-0.238279569892473
3838	-0.218279569892473
3839	-0.229032258064516
3840	-0.210537634408602
3841	-0.169032258064516
3842	-0.121290322580645
3843	-0.0782795698924732
3844	-0.0890322580645162
3845	-0.0152688172043012
3846	0.0277419354838709
3847	-0.0352688172043012
3848	-0.0982795698924732
3849	-0.0505376344086022
3850	0.0602150537634408
3851	0.00645161290322571
3852	0.0802150537634408
3853	0.110967741935484
3854	0.15247311827957
3855	0.163225806451613
3856	0.143225806451613
3857	0.123225806451613
3858	0.0632258064516129
3859	0.153978494623656
3860	0.144731182795699
3861	0.144731182795699
3862	0.196989247311828
3863	0.141720430107527
3864	0.15247311827957
3865	0.161720430107527
3866	0.0109677419354838
3867	0.0739784946236559
3868	0.0524731182795699
3869	0.13247311827957
3870	0.141720430107527
3871	0.130967741935484
3872	0.130967741935484
3873	0.129462365591398
3874	0.118709677419355
3875	0.149462365591398
3876	0.127956989247312
3877	0.180215053763441
3878	0.169462365591398
3879	0.146451612903226
3880	0.177204301075269
3881	0.114193548387097
3882	0.121935483870968
3883	0.143440860215054
3884	0.226451612903226
3885	0.237204301075269
3886	0.227956989247312
3887	0.269462365591398
3888	0.22494623655914
3889	0.22494623655914
3890	0.181935483870968
3891	0.109677419354839
3892	0.120430107526882
3893	0.0804301075268816
3894	0.140430107526882
3895	0.16494623655914
3896	0.195698924731183
3897	0.186451612903226
3898	0.14494623655914
3899	0.177204301075269
3900	0.177204301075269
3901	0.201720430107527
3902	0.301720430107527
3903	0.321720430107527
3904	0.330967741935484
3905	0.364731182795699
3906	0.375483870967742
3907	0.375483870967742
3908	0.386236559139785
3909	0.367741935483871
3910	0.383010752688172
3911	0.413763440860215
3912	0.384516129032258
3913	0.321505376344086
3914	0.323010752688172
3915	0.243010752688172
3916	0.255268817204301
3917	0.258279569892473
3918	0.209032258064516
3919	0.149032258064516
3920	0.0645161290322582
3921	0.023010752688172
3922	0.043010752688172
3923	0.012258064516129
3924	-0.0262365591397851
3925	0.0182795698924731
3926	-0.0324731182795699
3927	-0.0217204301075269
3928	0.0427956989247309
3929	0.0858064516129031
3930	0.119569892473118
3931	0.0965591397849461
3932	0.0980645161290321
3933	0.118064516129032
3934	0.147311827956989
3935	0.125806451612903
3936	0.179569892473118
3937	0.176559139784946
3938	0.228817204301075
3939	0.207311827956989
3940	0.168817204301075
3941	0.136559139784946
3942	0.188817204301075
3943	0.199569892473118
3944	0.181075268817204
3945	0.201075268817204
3946	0.125806451612903
3947	0.0965591397849461
3948	0.116559139784946
3949	0.0980645161290321
3950	0.0765591397849461
3951	0.156559139784946
3952	0.13505376344086
3953	0.164301075268817
3954	0.233548387096774
3955	0.345806451612903
3956	0.407311827956989
3957	0.408817204301075
3958	0.430322580645161
3959	0.46258064516129
3960	0.511827956989247
3961	0.488817204301075
3962	0.561075268817204
3963	0.634838709677419
3964	0.601075268817204
3965	0.650322580645161
3966	0.59505376344086
3967	0.636559139784946
3968	0.625806451612903
3969	0.59505376344086
3970	0.638064516129032
3971	0.648817204301075
3972	0.647311827956989
3973	0.658064516129032
3974	0.585806451612903
3975	0.524301075268817
3976	0.493548387096774
3977	0.452043010752688
3978	0.341290322580645
3979	0.333548387096774
3980	0.281290322580645
3981	0.239784946236559
3982	0.322795698924731
3983	0.332043010752688
3984	0.342795698924731
3985	0.393548387096774
3986	0.447311827956989
3987	0.427311827956989
3988	0.436559139784946
3989	0.416559139784946
3990	0.438064516129032
3991	0.405806451612903
3992	0.398064516129032
3993	0.450322580645161
3994	0.398064516129032
3995	0.325806451612903
3996	0.304301075268817
3997	0.273548387096774
3998	0.242795698924731
3999	0.219784946236559
4000	0.241290322580645
4001	0.219784946236559
4002	0.222795698924731
4003	0.199784946236559
4004	0.198279569892473
4005	0.16752688172043
4006	0.178279569892473
4007	0.169032258064516
4008	0.0952688172043011
4009	0.115268817204301
4010	0.175268817204301
4011	0.235268817204301
4012	0.264516129032258
4013	0.284516129032258
4014	0.323010752688172
4015	0.321505376344086
4016	0.381505376344086
4017	0.423010752688172
4018	0.369247311827957
4019	0.327741935483871
4020	0.327741935483871
4021	0.286236559139785
4022	0.241720430107527
4023	0.23247311827957
4024	0.130967741935484
4025	0.161720430107527
4026	0.0787096774193548
4027	0.0587096774193548
4028	0.0879569892473118
4029	0.0449462365591397
4030	0.00344086021505363
4031	0.0434408602150537
4032	0.0449462365591397
4033	0.0449462365591397
4034	0.0649462365591397
4035	0.0141935483870966
4036	0.0249462365591396
4037	0.0356989247311826
4038	0.0772043010752688
4039	0.0572043010752687
4040	-0.00279569892473119
4041	0.0402150537634408
4042	-0.00129032258064521
4043	-0.00279569892473119
4044	0.0387096774193548
4045	0.0387096774193548
4046	-0.0105376344086022
4047	-0.0105376344086022
4048	-0.0120430107526882
4049	0.00795698924731181
4050	0.00795698924731181
4051	-0.00430107526881729
4052	-0.104301075268817
4053	-0.0827956989247312
4054	-0.110537634408602
4055	-0.0905376344086022
4056	-0.181290322580645
4057	-0.139784946236559
4058	-0.136774193548387
4059	-0.156774193548387
4060	-0.0337634408602152
4061	-0.063010752688172
4062	-0.04
4063	-0.04
4064	-0.0815053763440861
4065	-0.0384946236559141
4066	-0.016989247311828
4067	0.013763440860215
4068	-0.0154838709677418
4069	-0.0232258064516129
4070	-0.0417204301075269
4071	-0.0309677419354839
4072	-0.113978494623656
4073	-0.0924731182795697
4074	-0.0939784946236559
4075	-0.0724731182795699
4076	-0.0124731182795699
4077	-0.0154838709677418
4078	-0.0262365591397851
4079	-0.0369892473118281
4080	-0.0662365591397851
4081	-0.0632258064516129
4082	0.00752688172043015
4083	0.0182795698924731
4084	0.0305376344086021
4085	0.0305376344086021
4086	0.0305376344086021
4087	0.0212903225806451
4088	0.0797849462365592
4089	0.0797849462365592
4090	0.161290322580645
4091	0.119784946236559
4092	0.181290322580645
4093	0.169032258064516
4094	0.230537634408602
4095	0.241290322580645
4096	0.250537634408602
4097	0.219784946236559
4098	0.236774193548387
4099	0.215268817204301
4100	0.215268817204301
4101	0.183010752688172
4102	0.212258064516129
4103	0.14
4104	0.158494623655914
4105	0.136989247311828
4106	0.155483870967742
4107	0.184731182795699
4108	0.224731182795699
4109	0.236989247311828
4110	0.173978494623656
4111	0.141720430107527
4112	0.130967741935484
4113	0.11247311827957
4114	0.11247311827957
4115	0.0662365591397848
4116	0.0969892473118279
4117	0.0939784946236559
4118	0.0217204301075268
4119	-0.0690322580645162
4120	-0.0812903225806452
4121	-0.132043010752688
4122	-0.0797849462365592
4123	-0.0690322580645162
4124	-0.0382795698924732
4125	-0.0505376344086022
4126	-0.112043010752688
4127	-0.0305376344086022
4128	-0.0520430107526882
4129	-0.0290322580645161
4130	-0.0397849462365591
4131	0.00172043010752676
4132	-0.0275268817204301
4133	-0.0397849462365591
4134	-0.0260215053763441
4135	0.058494623655914
4136	0.0922580645161289
4137	0.0845161290322581
4138	0.0845161290322581
4139	0.0967741935483872
4140	0.0875268817204302
4141	0.118279569892473
4142	0.119784946236559
4143	0.121290322580645
4144	0.142795698924731
4145	0.110537634408602
4146	0.0827956989247309
4147	0.0827956989247309
4148	0.0843010752688171
4149	0.0735483870967739
4150	0.0720430107526879
4151	0.161290322580645
4152	0.129032258064516
4153	0.0890322580645162
4154	0.161290322580645
4155	0.232043010752688
4156	0.224301075268817
4157	0.265806451612903
4158	0.212043010752688
4159	0.202795698924731
4160	0.152043010752688
4161	0.141290322580645
4162	0.172043010752688
4163	0.130537634408602
4164	0.159784946236559
4165	0.106021505376344
4166	0.0645161290322582
4167	0.00150537634408598
4168	0.00924731182795691
4169	0.00924731182795691
4170	-0.0137634408602152
4171	-0.0260215053763441
4172	-0.0597849462365592
4173	-0.0920430107526882
4174	-0.0812903225806452
4175	-0.0520430107526882
4176	-0.113548387096774
4177	-0.113548387096774
4178	-0.15505376344086
4179	-0.178064516129032
4180	-0.221075268817204
4181	-0.253333333333333
4182	-0.244086021505376
4183	-0.224086021505376
4184	-0.193333333333333
4185	-0.151827956989247
4186	-0.170322580645161
4187	-0.20258064516129
4188	-0.22258064516129
4189	-0.253333333333333
4190	-0.253333333333333
4191	-0.231827956989247
4192	-0.168817204301075
4193	-0.241075268817204
4194	-0.208817204301075
4195	-0.188817204301075
4196	-0.178064516129032
4197	-0.165806451612903
4198	-0.167311827956989
4199	-0.136559139784946
4200	-0.11505376344086
4201	-0.173548387096774
4202	-0.132043010752688
4203	-0.0890322580645162
4204	-0.0675268817204301
4205	-0.0460215053763441
4206	-0.0260215053763441
4207	-0.0460215053763441
4208	-0.0260215053763441
4209	0.013978494623656
4210	-0.0260215053763441
4211	0.0154838709677418
4212	0.0954838709677418
4213	0.0539784946236559
4214	0.0832258064516129
4215	0.115483870967742
4216	0.0769892473118279
4217	0.0599999999999999
4218	0.089247311827957
4219	0.101505376344086
4220	-0.00924731182795702
4221	0
4222	0.0507526881720429
4223	0.0737634408602149
4224	0.0737634408602149
4225	0.123010752688172
4226	0.103010752688172
4227	0.0492473118279569
4228	0.0262365591397848
4229	0.118494623655914
4230	0.107741935483871
4231	0.0969892473118279
4232	0.158494623655914
4233	0.116989247311828
4234	0.0877419354838709
4235	0.047741935483871
4236	0.00924731182795691
4237	0.0492473118279569
4238	0.0307526881720429
4239	0.0384946236559139
4240	-0.00301075268817208
4241	-0.0645161290322581
4242	-0.0845161290322581
4243	-0.115268817204301
4244	-0.164516129032258
4245	-0.153763440860215
4246	-0.133763440860215
4247	-0.266021505376344
4248	-0.346021505376344
4249	-0.272258064516129
4250	-0.261505376344086
4251	-0.24
4252	-0.170752688172043
4253	-0.101505376344086
4254	-0.0692473118279571
4255	-0.0922580645161291
4256	0.0292473118279569
4257	-0.0230107526881721
4258	-0.083010752688172
4259	-0.0752688172043011
4260	-0.0552688172043012
4261	-0.072258064516129
4262	-0.063010752688172
4263	-0.030752688172043
4264	-0.032258064516129
4265	-0.0937634408602152
4266	-0.104516129032258
4267	-0.083010752688172
4268	-0.144516129032258
4269	-0.104516129032258
4270	-0.116774193548387
4271	-0.0660215053763441
4272	-0.0352688172043012
4273	-0.00602150537634405
4274	0.00322580645161297
4275	-0.0260215053763441
4276	-0.0445161290322582
4277	0.00774193548387092
4278	0.00623655913978483
4279	0.0277419354838709
4280	0.0984946236559139
4281	0.109247311827957
4282	0.0984946236559139
4283	0.241505376344086
4284	0.321505376344086
4285	0.289247311827957
4286	0.290752688172043
4287	0.218494623655914
4288	0.147741935483871
4289	0.106236559139785
4290	0.0769892473118279
4291	0.112258064516129
4292	0.0707526881720429
4293	0.0737634408602149
4294	0.133763440860215
4295	0.124516129032258
4296	0.106021505376344
4297	0.053763440860215
4298	0.0660215053763442
4299	0.0245161290322582
4300	0.0152688172043012
4301	0.0782795698924732
4302	0.0812903225806452
4303	0.0505376344086022
4304	0.0720430107526879
4305	0.0627956989247309
4306	0.0950537634408601
4307	0.0350537634408601
4308	0.0335483870967739
4309	0.0365591397849463
4310	0.00580645161290305
4311	0.0565591397849461
4312	0.0473118279569893
4313	0.0565591397849461
4314	0.0795698924731183
4315	0.0780645161290321
4316	0.0350537634408601
4317	-0.0372043010752692
4318	-0.087956989247312
4319	-0.0987096774193548
4320	-0.0556989247311828
4321	0.00580645161290305
4322	-0.043440860215054
4323	-0.0526881720430108
4324	-0.021935483870968
4325	-0.021935483870968
4326	0.0365591397849463
4327	-0.0387096774193547
4328	-0.00645161290322593
4329	0.0320430107526879
4330	0.0227956989247309
4331	-0.0187096774193549
4332	0.0197849462365591
4333	0.110537634408602
4334	0.0582795698924732
4335	0.0797849462365592
4336	0.112043010752688
4337	0.0843010752688171
4338	0.13505376344086
4339	0.133548387096774
4340	0.121290322580645
4341	0.0612903225806452
4342	0.0597849462365592
4343	0.133548387096774
4344	0.145806451612903
4345	0.142795698924731
4346	0.142795698924731
4347	0.185806451612903
4348	0.23505376344086
4349	0.164301075268817
4350	0.0812903225806452
4351	0.112043010752688
4352	0.124301075268817
4353	0.15505376344086
4354	0.167311827956989
4355	0.159569892473118
4356	0.108817204301075
4357	0.119569892473118
4358	0.178064516129032
4359	0.198064516129032
4360	0.198064516129032
4361	0.210322580645161
4362	0.148817204301075
4363	0.153333333333333
4364	0.153333333333333
4365	0.144086021505377
4366	0.10258064516129
4367	0.124086021505376
4368	0.0855913978494622
4369	0.0148387096774194
4370	-0.0159139784946236
4371	-0.0466666666666669
4372	-0.0896774193548389
4373	-0.114193548387097
4374	-0.155698924731183
4375	-0.16494623655914
4376	-0.172688172043011
4377	-0.0819354838709678
4378	-0.0711827956989248
4379	-0.141935483870968
4380	-0.0926881720430108
4381	-0.061935483870968
4382	-0.0741935483870968
4383	-0.129462365591398
4384	-0.170967741935484
4385	-0.069462365591398
4386	0.0243010752688171
4387	-0.0264516129032262
4388	-0.0372043010752692
4389	-0.00494623655913995
4390	0.0150537634408603
4391	0.0258064516129033
4392	-0.0264516129032262
4393	-0.109462365591398
4394	-0.141720430107527
4395	-0.143225806451613
4396	-0.13247311827957
4397	-0.17247311827957
4398	-0.0787096774193548
4399	-0.0724731182795699
4400	-0.104731182795699
4401	-0.0847311827956989
4402	-0.0662365591397851
4403	-0.0369892473118281
4404	0.0245161290322582
4405	0.0737634408602149
4406	0.104516129032258
4407	0.144516129032258
4408	0.133763440860215
4409	0.164516129032258
4410	0.183010752688172
4411	0.226021505376344
4412	0.226021505376344
4413	0.195268817204301
4414	0.186021505376344
4415	0.253763440860215
4416	0.190752688172043
4417	0.149247311827957
4418	0.16
4419	0.163010752688172
4420	0.203010752688172
4421	0.173763440860215
4422	0.130752688172043
4423	0.192258064516129
4424	0.192258064516129
4425	0.170752688172043
4426	0.210752688172043
4427	0.166236559139785
4428	0.229247311827957
4429	0.283010752688172
4430	0.304516129032258
4431	0.306021505376344
4432	0.256774193548387
4433	0.316774193548387
4434	0.253763440860215
4435	0.28752688172043
4436	0.266021505376344
4437	0.255268817204301
4438	0.255268817204301
4439	0.26752688172043
4440	0.256774193548387
4441	0.24752688172043
4442	0.24752688172043
4443	0.321290322580645
4444	0.312043010752688
4445	0.292043010752688
4446	0.290537634408602
4447	0.256774193548387
4448	0.244516129032258
4449	0.264516129032258
4450	0.232258064516129
4451	0.161505376344086
4452	0.181505376344086
4453	0.212258064516129
4454	0.212258064516129
4455	0.252258064516129
4456	0.233763440860215
4457	0.244516129032258
4458	0.233763440860215
4459	0.183010752688172
4460	0.224516129032258
4461	0.26752688172043
4462	0.226021505376344
4463	0.246021505376344
4464	0.213763440860215
4465	0.16
4466	0.138494623655914
4467	0.136989247311828
4468	0.175483870967742
4469	0.141720430107527
4470	0.101720430107527
4471	0.0479569892473118
4472	0.0187096774193548
4473	0.00946236559139779
4474	0.00322580645161297
4475	-0.0505376344086022
4476	-0.0412903225806452
4477	-0.0920430107526882
4478	-0.0920430107526882
4479	-0.17505376344086
4480	-0.113548387096774
4481	-0.11505376344086
4482	-0.0582795698924732
4483	0.00473118279569884
4484	0.0877419354838709
4485	0.078494623655914
4486	0.0277419354838709
4487	0.110752688172043
4488	0.121505376344086
4489	0.103010752688172
4490	0.136774193548387
4491	0.0737634408602149
4492	0.104516129032258
4493	0.0599999999999999
4494	0.090752688172043
4495	0.1
4496	0.058494623655914
4497	0.00473118279569884
4498	-0.00451612903225818
4499	-0.0445161290322582
4500	-0.0660215053763441
4501	-0.0537634408602151
4502	0.010752688172043
4503	-0.00924731182795702
4504	0.00924731182795691
4505	-0.041505376344086
4506	0.0199999999999999
4507	0.0399999999999999
4508	0.0615053763440859
4509	0.0492473118279569
4510	0.047741935483871
4511	0.0707526881720429
4512	0.135268817204301
4513	0.166021505376344
4514	0.175268817204301
4515	0.135268817204301
4516	0.124516129032258
4517	0.146021505376344
4518	0.121505376344086
4519	0.090752688172043
4520	0.0815053763440859
4521	0.0507526881720429
4522	0.113763440860215
4523	0.132258064516129
4524	0.121505376344086
4525	0.183010752688172
4526	0.118494623655914
4527	0.118494623655914
4528	0.106236559139785
4529	0.0862365591397848
4530	0.0354838709677419
4531	0.0354838709677419
4532	0.0247311827956989
4533	0.0662365591397848
4534	0.127741935483871
4535	0.18
4536	0.201505376344086
4537	0.292258064516129
4538	0.281505376344086
4539	0.272258064516129
4540	0.315268817204301
4541	0.38752688172043
4542	0.38752688172043
4543	0.38752688172043
4544	0.42752688172043
4545	0.438279569892473
4546	0.461290322580645
4547	0.490537634408602
4548	0.416774193548387
4549	0.436774193548387
4550	0.458279569892473
4551	0.550537634408602
4552	0.561290322580645
4553	0.521290322580645
4554	0.544301075268817
4555	0.492043010752688
4556	0.479784946236559
4557	0.399784946236559
4558	0.381290322580645
4559	0.372043010752688
4560	0.352043010752688
4561	0.299784946236559
4562	0.321290322580645
4563	0.364301075268817
4564	0.396559139784946
4565	0.501075268817204
4566	0.511827956989247
4567	0.481075268817204
4568	0.471827956989247
4569	0.474838709677419
4570	0.44258064516129
4571	0.40258064516129
4572	0.371827956989247
4573	0.341075268817204
4574	0.290322580645161
4575	0.321075268817204
4576	0.331827956989247
4577	0.28258064516129
4578	0.251827956989247
4579	0.241075268817204
4580	0.210322580645161
4581	0.251827956989247
4582	0.216559139784946
4583	0.216559139784946
4584	0.205806451612903
4585	0.165806451612903
4586	0.156559139784946
4587	0.15505376344086
4588	0.102795698924731
4589	0.112043010752688
4590	0.0582795698924732
4591	0.0782795698924732
4592	0.0582795698924732
4593	0.209032258064516
4594	0.186021505376344
4595	0.206021505376344
4596	0.18752688172043
4597	0.198279569892473
4598	0.116774193548387
4599	0.0752688172043012
4600	0.0352688172043012
4601	-0.00473118279569884
4602	0.0260215053763442
4603	-0.0339784946236559
4604	-0.0232258064516129
4605	-0.0754838709677419
4606	-0.106236559139785
4607	-0.0662365591397851
4608	-0.0554838709677419
4609	-0.0862365591397851
4610	-0.107741935483871
4611	-0.12
4612	-0.141505376344086
4613	-0.124516129032258
4614	-0.104516129032258
4615	-0.112258064516129
4616	-0.0477419354838711
4617	-0.0477419354838711
4618	-0.0462365591397851
4619	-0.0447311827956989
4620	-0.0432258064516129
4621	-0.0339784946236559
4622	-0.0354838709677419
4623	-0.0232258064516129
4624	-0.0109677419354839
4625	0.0012903225806451
4626	-0.0202150537634409
4627	0.0335483870967739
4628	0.0135483870967739
4629	-0.0172043010752689
4630	0.0150537634408603
4631	0.00430107526881729
4632	0.0243010752688171
4633	-0.0141935483870967
4634	0.107311827956989
4635	0.0858064516129031
4636	0.0735483870967739
4637	0.0705376344086022
4638	-0.000215053763440887
4639	0.0597849462365592
4640	0.0382795698924732
4641	0.0782795698924732
4642	0.150537634408602
4643	0.138279569892473
4644	0.179784946236559
4645	0.209032258064516
4646	0.209032258064516
4647	0.221290322580645
4648	0.221290322580645
4649	0.204301075268817
4650	0.162795698924731
4651	0.190537634408602
4652	0.16752688172043
4653	0.146021505376344
4654	0.144516129032258
4655	0.103010752688172
4656	0.0307526881720429
4657	0.032258064516129
4658	0.043010752688172
4659	0
4660	0.0415053763440859
4661	-0.04
4662	-0.029247311827957
4663	-0.0707526881720431
4664	-0.030752688172043
4665	-0.030752688172043
4666	-0.021505376344086
4667	0.00301075268817197
4668	-0.027741935483871
4669	0.021505376344086
4670	0.010752688172043
4671	0.0199999999999999
4672	0.0722580645161289
4673	0.0307526881720429
4674	0.0815053763440859
4675	0.0815053763440859
4676	0.0937634408602149
4677	0.106021505376344
4678	0.0445161290322582
4679	0.0460215053763442
4680	0.0675268817204302
4681	0.0367741935483872
4682	0.0675268817204302
4683	0.0967741935483872
4684	0.0567741935483872
4685	0.0552688172043012
4686	0.118279569892473
4687	0.10752688172043
4688	0.118279569892473
4689	0.161290322580645
4690	0.152043010752688
4691	0.172043010752688
4692	0.262795698924731
4693	0.292043010752688
4694	0.239784946236559
4695	0.218279569892473
4696	0.184516129032258
4697	0.233763440860215
4698	0.223010752688172
4699	0.201505376344086
4700	0.170752688172043
4701	0.201505376344086
4702	0.12
4703	-0.00451612903225818
4704	0.0354838709677419
4705	0.0154838709677418
4706	-0.0245161290322582
4707	0.0277419354838709
4708	0.0169892473118279
4709	0.0184946236559139
4710	0.058494623655914
4711	0.00774193548387092
4712	0.0277419354838709
4713	-0.0152688172043012
4714	0.00623655913978483
4715	-0.0752688172043011
4716	-0.118279569892473
4717	-0.0660215053763441
4718	-0.0537634408602151
4719	-0.126021505376344
4720	-0.135268817204301
4721	-0.104516129032258
4722	-0.172258064516129
4723	-0.2
4724	-0.230752688172043
4725	-0.303010752688172
4726	-0.301505376344086
4727	-0.292258064516129
4728	-0.301505376344086
4729	-0.3
4730	-0.309247311827957
4731	-0.316989247311828
4732	-0.273978494623656
4733	-0.264731182795699
4734	-0.243225806451613
4735	-0.253978494623656
4736	-0.263225806451613
4737	-0.240215053763441
4738	-0.201720430107527
4739	-0.15247311827957
4740	-0.180215053763441
4741	-0.170967741935484
4742	-0.147956989247312
4743	-0.198709677419355
4744	-0.229462365591398
4745	-0.230967741935484
4746	-0.167956989247312
4747	-0.115698924731183
4748	-0.146451612903226
4749	-0.0956989247311828
4750	-0.0956989247311828
4751	-0.0449462365591398
4752	-0.0864516129032262
4753	-0.198709677419355
4754	-0.27247311827957
4755	-0.189462365591398
4756	-0.21247311827957
4757	-0.23247311827957
4758	-0.195483870967742
4759	-0.155483870967742
4760	-0.176989247311828
4761	-0.176989247311828
4762	-0.207741935483871
4763	-0.196989247311828
4764	-0.238494623655914
4765	-0.289247311827957
4766	-0.207741935483871
4767	-0.2
4768	-0.232258064516129
4769	-0.209247311827957
4770	-0.207741935483871
4771	-0.173978494623656
4772	-0.163225806451613
4773	-0.195483870967742
4774	-0.163225806451613
4775	-0.11247311827957
4776	-0.0724731182795699
4777	-0.0617204301075269
4778	-0.0739784946236559
4779	-0.0847311827956989
4780	-0.0232258064516129
4781	0.0290322580645161
4782	-0.0354838709677419
4783	-0.027741935483871
4784	-0.02
4785	0.00150537634408598
4786	-0.050752688172043
4787	-0.030752688172043
4788	-0.00774193548387103
4789	0.0645161290322582
4790	0.156774193548387
4791	0.166021505376344
4792	0.219784946236559
4793	0.209032258064516
4794	0.16752688172043
4795	0.221290322580645
4796	0.241290322580645
4797	0.272043010752688
4798	0.310537634408602
4799	0.241290322580645
4800	0.284301075268817
4801	0.322795698924731
4802	0.312043010752688
4803	0.304301075268817
4804	0.325806451612903
4805	0.293548387096774
4806	0.230537634408602
4807	0.159784946236559
4808	0.149032258064516
4809	0.118279569892473
4810	0.0875268817204302
4811	0.0475268817204302
4812	0.0567741935483872
4813	-0.0232258064516129
4814	-0.00473118279569884
4815	0.00451612903225818
4816	0.00451612903225818
4817	-0.0154838709677418
4818	0.00602150537634416
4819	-0.0217204301075269
4820	-0.0387096774193547
4821	-0.11247311827957
4822	-0.0724731182795699
4823	-0.0709677419354837
4824	-0.0417204301075269
4825	-0.0632258064516129
4826	-0.0524731182795699
4827	-0.11247311827957
4828	-0.146236559139785
4829	-0.156989247311828
4830	-0.126236559139785
4831	-0.230752688172043
4832	-0.22
4833	-0.210752688172043
4834	-0.2
4835	-0.192258064516129
4836	-0.183010752688172
4837	-0.192258064516129
4838	-0.221505376344086
4839	-0.230752688172043
4840	-0.24
4841	-0.241505376344086
4842	-0.18
4843	-0.152258064516129
4844	-0.0800000000000001
4845	-0.072258064516129
4846	-0.113763440860215
4847	-0.115268817204301
4848	-0.166021505376344
4849	-0.126021505376344
4850	-0.135268817204301
4851	-0.163010752688172
4852	-0.215268817204301
4853	-0.246021505376344
4854	-0.318279569892473
4855	-0.330537634408602
4856	-0.279784946236559
4857	-0.258279569892473
4858	-0.256774193548387
4859	-0.256774193548387
4860	-0.26752688172043
4861	-0.28752688172043
4862	-0.329032258064516
4863	-0.309032258064516
4864	-0.316774193548387
4865	-0.346021505376344
4866	-0.336774193548387
4867	-0.358279569892473
4868	-0.358279569892473
4869	-0.338279569892473
4870	-0.358279569892473
4871	-0.34752688172043
4872	-0.410537634408602
4873	-0.401290322580645
4874	-0.401290322580645
4875	-0.332043010752688
4876	-0.344301075268817
4877	-0.342795698924731
4878	-0.422795698924731
4879	-0.352043010752688
4880	-0.422795698924731
4881	-0.442795698924731
4882	-0.399784946236559
4883	-0.36752688172043
4884	-0.376774193548387
4885	-0.418279569892473
4886	-0.499784946236559
4887	-0.501290322580645
4888	-0.550537634408602
4889	-0.510537634408602
4890	-0.470537634408602
4891	-0.416774193548387
4892	-0.519784946236559
4893	-0.550537634408602
4894	-0.561290322580645
4895	-0.582795698924731
4896	-0.570537634408602
4897	-0.498279569892473
4898	-0.509032258064516
4899	-0.541290322580645
4900	-0.552043010752688
4901	-0.513548387096775
4902	-0.502795698924731
4903	-0.418279569892473
4904	-0.44752688172043
4905	-0.436774193548387
4906	-0.415268817204301
4907	-0.424516129032258
4908	-0.392258064516129
4909	-0.430752688172043
4910	-0.44
4911	-0.449247311827957
4912	-0.416989247311828
4913	-0.436989247311828
4914	-0.367741935483871
4915	-0.375483870967742
4916	-0.386236559139785
4917	-0.31247311827957
4918	-0.229462365591398
4919	-0.207956989247312
4920	-0.178709677419355
4921	-0.166451612903226
4922	-0.0419354838709678
4923	-0.018924731182796
4924	0.053333333333333
4925	0.0763440860215054
4926	0.0778494623655912
4927	0.107096774193548
4928	0.139354838709677
4929	0.22236559139785
4930	0.263870967741936
4931	0.336129032258064
4932	0.356129032258064
4933	0.276129032258065
4934	0.265376344086022
4935	0.31763440860215
4936	0.391397849462366
4937	0.362150537634409
4938	0.446666666666667
4939	0.402150537634409
4940	0.463655913978495
4941	0.434408602150538
4942	0.443655913978495
4943	0.495913978494624
4944	0.425161290322581
4945	0.494408602150538
4946	0.472903225806451
4947	0.463655913978495
4948	0.442150537634408
4949	0.482150537634408
4950	0.440645161290322
4951	0.459139784946236
4952	0.49763440860215
4953	0.476129032258064
4954	0.353118279569892
4955	0.280860215053763
4956	0.27010752688172
4957	0.35010752688172
4958	0.297849462365591
4959	0.234838709677419
4960	0.264086021505376
4961	0.213333333333333
4962	0.265591397849462
4963	0.225591397849462
4964	0.264086021505376
4965	0.181075268817204
4966	0.139569892473118
4967	0.0873118279569891
4968	0.0873118279569891
4969	0.187311827956989
4970	0.190322580645161
4971	0.199569892473118
4972	0.188817204301075
4973	0.250322580645161
4974	0.176559139784946
4975	0.231827956989247
4976	0.211827956989247
4977	0.284086021505376
4978	0.22258064516129
4979	0.168817204301075
4980	0.208817204301075
4981	0.201075268817204
4982	0.231827956989247
4983	0.241075268817204
4984	0.277849462365591
4985	0.237849462365591
4986	0.25010752688172
4987	0.25010752688172
4988	0.230107526881721
4989	0.157849462365591
4990	0.174838709677419
4991	0.205591397849462
4992	0.265591397849462
4993	0.254838709677419
4994	0.22258064516129
4995	0.324086021505376
4996	0.211827956989247
4997	0.251827956989247
4998	0.190322580645161
4999	0.210322580645161
5000	0.119569892473118
5001	0.181075268817204
5002	0.171827956989247
5003	0.236344086021505
5004	0.227096774193548
5005	0.227096774193548
5006	0.194838709677419
5007	0.185591397849462
5008	0.185591397849462
5009	0.144086021505377
5010	0.0840860215053765
5011	0.0733333333333333
5012	0.0933333333333333
5013	-0.021935483870968
5014	-0.000430107526881995
5015	0.0118279569892472
5016	0.031827956989247
5017	-0.000430107526881995
5018	-0.0311827956989248
5019	-0.0526881720430108
5020	-0.140215053763441
5021	-0.170967741935484
5022	-0.138709677419355
5023	-0.149462365591398
5024	-0.107956989247312
5025	-0.077204301075269
5026	-0.0356989247311827
5027	0.00580645161290305
5028	-0.00494623655913995
5029	-0.0556989247311828
5030	-0.043440860215054
5031	-0.083440860215054
5032	-0.011182795698925
5033	-0.043440860215054
5034	-0.021935483870968
5035	-0.0926881720430108
5036	0.00881720430107524
5037	-0.0126881720430108
5038	0.0165591397849461
5039	-0.0356989247311827
5040	-0.067956989247312
5041	-0.110967741935484
5042	-0.100215053763441
5043	-0.130967741935484
5044	-0.110967741935484
5045	-0.121720430107527
5046	-0.113978494623656
5047	-0.115483870967742
5048	-0.187741935483871
5049	-0.184731182795699
5050	-0.186236559139785
5051	-0.178494623655914
5052	-0.155483870967742
5053	-0.195483870967742
5054	-0.123225806451613
5055	-0.161720430107527
5056	-0.118709677419355
5057	-0.077204301075269
5058	-0.107956989247312
5059	-0.126451612903226
5060	-0.172688172043011
5061	-0.161935483870968
5062	-0.146666666666667
5063	-0.135913978494624
5064	-0.194408602150538
5065	-0.175913978494624
5066	-0.146666666666667
5067	-0.238924731182796
5068	-0.19741935483871
5069	-0.185161290322581
5070	-0.214408602150538
5071	-0.206666666666667
5072	-0.286666666666667
5073	-0.285161290322581
5074	-0.326666666666667
5075	-0.33741935483871
5076	-0.328172043010753
5077	-0.375913978494624
5078	-0.323655913978495
5079	-0.272903225806452
5080	-0.374408602150538
5081	-0.291397849462366
5082	-0.279139784946237
5083	-0.328387096774194
5084	-0.368387096774194
5085	-0.319139784946237
5086	-0.27763440860215
5087	-0.276129032258065
5088	-0.268387096774194
5089	-0.228387096774194
5090	-0.26989247311828
5091	-0.251397849462366
5092	-0.252903225806452
5093	-0.285161290322581
5094	-0.266666666666667
5095	-0.214408602150538
5096	-0.19741935483871
5097	-0.102150537634409
5098	-0.188172043010753
5099	-0.300430107526882
5100	-0.269677419354839
5101	-0.25741935483871
5102	-0.235913978494624
5103	-0.123655913978495
5104	-0.206666666666667
5105	-0.19741935483871
5106	-0.135913978494624
5107	-0.0944086021505377
5108	-0.00516129032258061
5109	0.013333333333333
5110	0.120860215053763
5111	0.120860215053763
5112	0.111612903225806
5113	0.180860215053763
5114	0.148602150537634
5115	0.107096774193548
5116	0.124086021505376
5117	0.113333333333333
5118	0.174838709677419
5119	0.18258064516129
5120	0.161075268817204
5121	0.18258064516129
5122	0.124086021505376
5123	0.145591397849462
5124	0.125591397849462
5125	0.117849462365591
5126	0.160860215053763
5127	0.211612903225807
5128	0.231612903225806
5129	0.231612903225806
5130	0.191612903225806
5131	0.117849462365591
5132	0.159354838709677
5133	0.053333333333333
5134	0.0440860215053764
5135	0.0440860215053764
5136	0.0303225806451612
5137	-0.0389247311827958
5138	0.0225806451612902
5139	-0.0589247311827958
5140	-0.00666666666666682
5141	0.00559139784946239
5142	-0.0174193548387098
5143	-0.0266666666666668
5144	-0.0466666666666669
5145	-0.0574193548387099
5146	-0.183440860215054
5147	-0.16494623655914
5148	-0.174193548387097
5149	-0.214193548387097
5150	-0.286451612903226
5151	-0.24494623655914
5152	-0.263440860215054
5153	-0.315698924731183
5154	-0.378709677419355
5155	-0.338709677419355
5156	-0.217204301075269
5157	-0.237204301075269
5158	-0.207956989247312
5159	-0.238709677419355
5160	-0.247956989247312
5161	-0.178709677419355
5162	-0.263225806451613
5163	-0.304731182795699
5164	-0.295483870967742
5165	-0.263225806451613
5166	-0.275483870967742
5167	-0.313978494623656
5168	-0.387741935483871
5169	-0.366236559139785
5170	-0.356989247311828
5171	-0.276989247311828
5172	-0.25247311827957
5173	-0.173978494623656
5174	-0.224731182795699
5175	-0.19247311827957
5176	-0.273978494623656
5177	-0.266236559139785
5178	-0.296989247311828
5179	-0.266236559139785
5180	-0.324731182795699
5181	-0.320215053763441
5182	-0.286451612903226
5183	-0.295698924731183
5184	-0.297204301075269
5185	-0.174193548387097
5186	-0.131182795698925
5187	-0.231182795698925
5188	-0.198924731182796
5189	-0.145161290322581
5190	-0.103655913978495
5191	-0.192903225806452
5192	-0.159139784946237
5193	-0.14989247311828
5194	-0.0991397849462365
5195	-0.100645161290323
5196	-0.100645161290323
5197	-0.203655913978495
5198	-0.202150537634409
5199	-0.108387096774194
5200	-0.0976344086021506
5201	-0.108387096774194
5202	-0.0883870967741935
5203	-0.0391397849462367
5204	0.0546236559139786
5205	0.0253763440860215
5206	0.00838709677419347
5207	-0.0223655913978495
5208	-0.00387096774193574
5209	-0.0116129032258065
5210	-0.0453763440860213
5211	-0.0253763440860215
5212	0.0238709677419355
5213	-0.0361290322580645
5214	0.00387096774193552
5215	0.0208602150537633
5216	0.0516129032258066
5217	0.0608602150537634
5218	0.0378494623655914
5219	0.0270967741935484
5220	-0.0544086021505377
5221	-0.169677419354839
5222	-0.169677419354839
5223	-0.0374193548387098
5224	-0.0281720430107528
5225	-0.0789247311827959
5226	-0.160430107526882
5227	-0.0789247311827959
5228	-0.0896774193548389
5229	-0.0681720430107529
5230	-0.149677419354839
5231	-0.15741935483871
5232	-0.186666666666667
5233	-0.102150537634409
5234	-0.0621505376344087
5235	-0.0821505376344087
5236	-0.151397849462366
5237	-0.142150537634409
5238	-0.112903225806452
5239	-0.0513978494623657
5240	-0.163655913978495
5241	-0.103655913978495
5242	-0.0959139784946237
5243	-0.145161290322581
5244	-0.166666666666667
5245	-0.189677419354839
5246	-0.218924731182796
5247	-0.218924731182796
5248	-0.195913978494624
5249	-0.155913978494624
5250	-0.191397849462366
5251	-0.199139784946237
5252	-0.168387096774194
5253	-0.34989247311828
5254	-0.326881720430108
5255	-0.376129032258064
5256	-0.260860215053764
5257	-0.219354838709678
5258	-0.280860215053764
5259	-0.373118279569893
5260	-0.320860215053764
5261	-0.239354838709678
5262	-0.176344086021505
5263	-0.248602150537635
5264	-0.350107526881721
5265	-0.373118279569893
5266	-0.267096774193549
5267	-0.268602150537635
5268	-0.220860215053764
5269	-0.202365591397849
5270	-0.213118279569892
5271	-0.268387096774194
5272	-0.196129032258064
5273	-0.151612903225807
5274	-0.117849462365592
5275	-0.127096774193548
5276	-0.0563440860215054
5277	-0.0870967741935487
5278	-0.0163440860215054
5279	-0.0148387096774194
5280	-0.0040860215053764
5281	-0.0118279569892474
5282	0.0526881720430106
5283	0.0219354838709676
5284	-0.0195698924731182
5285	-0.0673118279569893
5286	-0.0395698924731185
5287	-0.0303225806451612
5288	-0.0425806451612905
5289	0.0959139784946237
5290	0.0344086021505376
5291	0.0866666666666664
5292	0.0636559139784947
5293	0.0389247311827956
5294	0.0881720430107527
5295	0.152688172043011
5296	0.140430107526881
5297	0.131182795698925
5298	0.100430107526882
5299	0.109677419354839
5300	0.121935483870968
5301	0.0726881720430106
5302	0.0374193548387096
5303	0.0574193548387096
5304	0.0466666666666666
5305	-0.0148387096774194
5306	-0.0225806451612904
5307	-0.130322580645161
5308	-0.233333333333333
5309	-0.307096774193549
5310	-0.416344086021505
5311	-0.508602150537635
5312	-0.548602150537634
5313	-0.610107526881721
5314	-0.720860215053764
5315	-0.671612903225807
5316	-0.608602150537635
5317	-0.547096774193549
5318	-0.527096774193548
5319	-0.517849462365592
5320	-0.548602150537634
5321	-0.533118279569893
5322	-0.574623655913978
5323	-0.583870967741936
5324	-0.583870967741936
5325	-0.57010752688172
5326	-0.500860215053764
5327	-0.514623655913978
5328	-0.496129032258065
5329	-0.480645161290323
5330	-0.539139784946237
5331	-0.594408602150538
5332	-0.594408602150538
5333	-0.595913978494623
5334	-0.606666666666667
5335	-0.595913978494623
5336	-0.53741935483871
5337	-0.514408602150538
5338	-0.545161290322581
5339	-0.543655913978495
5340	-0.542150537634408
5341	-0.602150537634409
5342	-0.623655913978495
5343	-0.555913978494624
5344	-0.422150537634409
5345	-0.382150537634409
5346	-0.346666666666667
5347	-0.274408602150538
5348	-0.274408602150538
5349	-0.182150537634409
5350	-0.131397849462366
5351	-0.100645161290323
5352	-0.163655913978495
5353	-0.215913978494624
5354	-0.248172043010753
5355	-0.200645161290323
5356	-0.157634408602151
5357	-0.219139784946237
5358	-0.219139784946237
5359	-0.20989247311828
5360	-0.240645161290323
5361	-0.312903225806452
5362	-0.363655913978495
5363	-0.331397849462366
5364	-0.317634408602151
5365	-0.286881720430108
5366	-0.328387096774194
5367	-0.319139784946237
5368	-0.317634408602151
5369	-0.345376344086021
5370	-0.293118279569893
5371	-0.251612903225807
5372	-0.285376344086022
5373	-0.268387096774194
5374	-0.285376344086022
5375	-0.297634408602151
5376	-0.27763440860215
5377	-0.154623655913978
5378	-0.0608602150537636
5379	0.0236559139784946
5380	-0.0501075268817206
5381	-0.0886021505376346
5382	-0.0348387096774194
5383	-0.0040860215053764
5384	-0.0225806451612904
5385	-0.0610752688172045
5386	-0.0518279569892472
5387	-0.0625806451612902
5388	-0.153333333333333
5389	-0.191827956989247
5390	-0.110322580645161
5391	-0.145591397849463
5392	-0.239354838709678
5393	-0.205591397849462
5394	-0.204086021505376
5395	-0.213333333333333
5396	-0.194838709677419
5397	-0.0918279569892475
5398	-0.0688172043010753
5399	-0.0688172043010753
5400	-0.0488172043010755
5401	-0.0473118279569893
5402	0.0234408602150538
5403	-0.0273118279569895
5404	-0.0380645161290325
5405	-0.0518279569892472
5406	-0.0425806451612905
5407	-0.113333333333334
5408	-0.224086021505376
5409	-0.184086021505376
5410	-0.111827956989247
5411	-0.0903225806451613
5412	-0.0795698924731183
5413	-0.0688172043010753
5414	-0.111827956989247
5415	-0.14258064516129
5416	-0.14258064516129
5417	-0.131827956989247
5418	-0.191827956989247
5419	-0.191827956989247
5420	-0.131827956989247
5421	-0.144086021505376
5422	-0.00731182795698948
5423	-0.0380645161290325
5424	0.0234408602150538
5425	0.0726881720430106
5426	0.00193548387096776
5427	0.0219354838709676
5428	0.17268817204301
5429	0.192688172043011
5430	0.151182795698924
5431	0.140430107526881
5432	0.183440860215053
5433	0.180430107526882
5434	0.168172043010753
5435	0.15741935483871
5436	0.105161290322581
5437	0.123655913978495
5438	0.134408602150538
5439	0.280430107526882
5440	0.260430107526882
5441	0.229677419354839
5442	0.238924731182796
5443	0.363440860215054
5444	0.454193548387097
5445	0.366451612903226
5446	0.312688172043011
5447	0.334193548387097
5448	0.366451612903226
5449	0.375698924731183
5450	0.387956989247312
5451	0.398709677419355
5452	0.400215053763441
5453	0.407956989247312
5454	0.455698924731183
