1	0.0034103410341034
2	-0.00607679815600608
3	-0.00734978259730734
4	-0.0117973702132118
5	-0.00930378752160931
6	-0.0111687359212112
7	-0.0136256482791136
8	-0.0144323956205144
9	-0.0131227408455131
10	-0.00758028183770759
11	-0.00897899313740896
12	-0.0123683796951123
13	-0.00940855990360942
14	-0.0106815443449107
15	-0.000780554245900761
16	0.00382943056210383
17	0.00171302844570173
18	-0.00345224998690347
19	-2.619309550006e-05
20	-0.00519147152810517
21	0.00826130232070826
22	0.0101629210540101
23	0.015956833778616
24	0.0243333857195243
25	0.0255173136361255
26	0.0253025302530253
27	0.0276703860862277
28	0.0262716747865262
29	0.0168735921211169
30	0.0161925716381163
31	0.0153858242967154
32	0.0215202472628216
33	0.0195295720048195
34	0.0218974278380218
35	0.0212164073550212
36	0.0290009953376291
37	0.0254858819215255
38	0.0324637225627324
39	0.0288228822882288
40	0.0316569752213317
41	0.0335585939546336
42	0.0338100476714338
43	0.0324113363717324
44	0.0349049190633349
45	0.0405731049295406
46	0.0444653989208444
47	0.0468332547540469
48	0.0422599402797423
49	0.0392110639635392
50	0.0415789197967417
51	0.0371313321808371
52	0.0439834459636439
53	0.0433024254806433
54	0.0504950495049505
55	0.0533291424380534
56	0.0541725601131542
57	0.055015977788255
58	0.0546754675467547
59	0.0538687202053539
60	0.0544606841636545
61	0.052003771805752
62	0.0653308187961653
63	0.064990308554665
64	0.0640578343548641
65	0.0674838912462676
66	0.0682015820629682
67	0.0646864686468647
68	0.0671800513384672
69	0.0642569018806644
70	0.057907695531458
71	0.0598093142647598
72	0.053926345015454
73	0.0552359997904551
74	0.0658861124207659
75	0.0572633453821573
76	0.0552726701241554
77	0.0592906909738594
78	0.0633087118235632
79	0.0608517994656608
80	0.0644035832154645
81	0.0587720676829587
82	0.0635077793493637
83	0.0675258001990675
84	0.0628267588663628
85	0.0566032793755565
86	0.0580386610089582
87	0.0674734140080674
88	0.064890774791765
89	0.0654827387500656
90	0.0553669652679555
91	0.0613756613756613
92	0.0637435172088637
93	0.07000366703337
94	0.0815548221488815
95	0.0809628581905809
96	0.092980250405993
97	0.0922625595892922
98	0.0982712556969983
99	0.0888365026978889
100	0.0867201005814867
101	0.0844779716066844
102	0.090952904814291
103	0.0962439101052962
104	0.0996699669966997
105	0.102252606213002
106	0.112494106553513
107	0.112834616795013
108	0.123793807952224
109	0.122609880035623
110	0.11990151396092
111	0.116852637644717
112	0.107669338362408
113	0.111310178636911
114	0.11012625072031
115	0.118125622086018
116	0.10987479700351
117	0.102215935879302
118	0.102467389596102
119	0.107884121745508
120	0.106825920687307
121	0.11977578710252
122	0.115757766252816
123	0.111273508303211
124	0.113138456702813
125	0.104295667662004
126	0.0951123683796952
127	0.1004033736707
128	0.104169940803604
129	0.106878306878307
130	0.119110482476819
131	0.117334590601917
132	0.121101157734821
133	0.12016868353502
134	0.11970244643512
135	0.127235580700927
136	0.127576090942428
137	0.118859028760019
138	0.12038346691812
139	0.12013201320132
140	0.125548745350726
141	0.121907905076222
142	0.118607575043219
143	0.116831683168317
144	0.119540049243019
145	0.113065116035413
146	0.103289852794803
147	0.122033631934622
148	0.122499869034522
149	0.127790874325528
150	0.130499240400231
151	0.132615642516633
152	0.134606317774634
153	0.127287966891927
154	0.128220441091728
155	0.140704070407041
156	0.138461941432238
157	0.142694745665043
158	0.142569018806643
159	0.133977683482634
160	0.137026559798837
161	0.134443920582534
162	0.135502121640735
163	0.124202420242024
164	0.126910786316727
165	0.132453245324533
166	0.134569647440935
167	0.131395044266331
168	0.144811147781445
169	0.144219183823144
170	0.143627219864844
171	0.151500864372151
172	0.147268060139347
173	0.158352978154958
174	0.16046938027136
175	0.163177746346063
176	0.155178374980355
177	0.157294777096757
178	0.153994447063754
179	0.143752946723244
180	0.141510817748442
181	0.136560322698937
182	0.146676096181047
183	0.145958405364346
184	0.135591178165436
185	0.144182513489444
186	0.153832049871654
187	0.149347791922049
188	0.134747760490335
189	0.139106291581539
190	0.135805961548536
191	0.143213368955943
192	0.143087642097543
193	0.124846770391325
194	0.123070878516423
195	0.113887579234114
196	0.105421970768505
197	0.102587877835403
198	0.106946408926607
199	0.105421970768505
200	0.110838702917911
201	0.113547068992614
202	0.124380533291424
203	0.122138404316622
204	0.121080203258421
205	0.122012677458222
206	0.116595945308817
207	0.10999528524281
208	0.105296243910105
209	0.0904447587615904
210	0.0912881764366912
211	0.0928126145947927
212	0.0910367227198911
213	0.101529676777202
214	0.0935303054114935
215	0.101781130494002
216	0.104023259468804
217	0.101100110011001
218	0.106642569018807
219	0.0973335428780973
220	0.0929750117868929
221	0.0941589397034941
222	0.0870920425375872
223	0.0752003771805752
224	0.0775682330137776
225	0.0853528209963853
226	0.086070511813086
227	0.0969039761118969
228	0.08996280580439
229	0.0905547697626905
230	0.0884383676462884
231	0.0938550997956937
232	0.0971554298286971
233	0.0905547697626905
234	0.0893708418460895
235	0.0877206768295878
236	0.0848865838964847
237	0.0866624757713867
238	0.0883126407878884
239	0.0807795065220808
240	0.0741788464560742
241	0.0624129079574625
242	0.0608884697993608
243	0.0608884697993608
244	0.0599559955995599
245	0.0518308973754518
246	0.0626643616742626
247	0.0604222326994605
248	0.0353292472104353
249	0.0336790821939336
250	0.0342710461522343
251	0.0347372832521347
252	0.0302530253025303
253	0.0362617214102362
254	0.0287285871444287
255	0.0320289171774319
256	0.0225941641783225
257	0.0237780920949238
258	0.0204777620619204
259	0.0194195610037194
260	0.022002200220022
261	0.0233118549950234
262	0.018953323903819
263	0.0228456178951228
264	0.0198857981036199
265	0.0132851380376133
266	0.0096442977631096
267	0.000460998480800501
268	0.000460998480800501
269	-0.00778982660170779
270	-0.0116821205930117
271	-0.0127403216512126
272	-0.0153229608675153
273	-0.0115563937346115
274	-0.0178165435591178
275	-0.0206506364922205
276	-0.0218345644088218
277	-0.0203101262507204
278	-0.0143014301430143
279	-0.0121850280266121
280	-0.00194352768610173
281	-0.00253549164440225
282	0.000298601288700295
283	-0.00723453297710708
284	-0.00841846089370857
285	-0.00829273403530817
286	-0.00875897113520874
287	-0.00605060506050603
288	0.00279218398030268
289	0.00490858609670486
290	0.00431662213840434
291	8.3817905600081e-05
292	0.00279218398030268
293	-0.00156634711090153
294	0.0106658284876108
295	0.0013568023469015
296	0.00194876630520191
297	0.0192571638116192
298	0.0127822306040128
299	0.0203153648698203
300	0.0121902666457122
301	0.00618157053800628
302	0.00512336947980518
303	-0.00300172874430293
304	-0.0123107548850124
305	-0.0184451778511183
306	-0.0178532138928179
307	-0.014086646759914
308	-0.0136204096600135
309	-0.00172874430300174
310	-0.000670543244800759
311	0.0091047199958092
312	0.00817224579600828
313	0.00487191576300505
314	-0.00287600188590287
315	0.00123107548850143
316	-0.0123107548850124
317	-0.00913615171040905
318	-0.0151448478181151
319	-0.0137461365184137
320	-0.00680496621090687
321	-0.00481429095290475
322	-0.00587249201110596
323	-0.00693069306930694
324	-0.00257216197810262
325	-0.0114149510189113
326	-0.0201320132013201
327	-0.0228403792760229
328	-0.0260149824506261
329	-0.0201320132013201
330	-0.0273246372256274
331	-0.0354497354497355
332	-0.0386243386243387
333	-0.044041070773744
334	-0.0446330347320446
335	-0.0472156739483472
336	-0.0427314159987426
337	-0.0448478181151447
338	-0.0461574728901462
339	-0.046031746031746
340	-0.0367227198910367
341	-0.0344805909162345
342	-0.0296558227251296
343	-0.0227146524176227
344	-0.0225889255592225
345	-0.0171721934098171
346	-0.00870658494420862
347	-0.00693069306930694
348	-0.00198019801980198
349	0.000602441196500658
350	1.0477238199913e-05
351	-0.00257216197810262
352	0.00402849808790395
353	0.00203782282990206
354	-0.00879564146890877
355	-0.00397087327780399
356	-0.00714547645240704
357	-0.0136204096600135
358	-0.0124364817434123
359	-0.0138351930431138
360	-0.0114673372099113
361	-0.00440044004400442
362	-0.0100686259102101
363	-0.00524385771910529
364	-0.0144271570014145
365	-0.0127769919849128
366	-0.0196291057677196
367	-0.00405992980250403
368	-0.00452616690240448
369	-0.00169207396930171
370	-0.00156634711090153
371	-0.00262454816910263
372	8.3817905600081e-05
373	0.00220022002200215
374	0.0124417203625122
375	0.0130336843208131
376	0.00786840588820792
377	0.0163706846875163
378	0.0229713447535229
379	0.0214469065954215
380	0.0221645974121223
381	0.00557389072240544
382	0.0132327518466133
383	0.0120488239300121
384	0.0115825868301117
385	0.0142909529048143
386	0.0230080150872231
387	0.016999318979517
388	0.00557389072240544
389	0.00650636492220646
390	0.00663209178060664
391	0.0120488239300121
392	0.0144166797632144
393	0.0226675048457227
394	0.0185604274713184
395	0.0208025564461207
396	0.0206768295877205
397	0.0185604274713184
398	0.0158520613966158
399	0.0185604274713184
400	0.0126774582220127
401	0.0167845355964169
402	0.0249096338205248
403	0.033034732044633
404	0.0319765309864318
405	0.0401016292105403
406	0.0504688564094504
407	0.052119021425952
408	0.0492849284928493
409	0.0476347634763477
410	0.0405678663104405
411	0.0377337733773376
412	0.0326575514694327
413	0.0439572528681439
414	0.0475980931426475
415	0.0511132065587512
416	0.0658389648488658
417	0.0754885012310755
418	0.0684216040651685
419	0.0741788464560742
420	0.0785373775472784
421	0.0812457436219811
422	0.0823039446801821
423	0.0839541096966838
424	0.0859447849546859
425	0.0837026559798837
426	0.0918277542039918
427	0.0951280842369954
428	0.101011053486301
429	0.0971187594949969
430	0.0932264655036933
431	0.0948766305201949
432	0.1001676358112
433	0.0962753418198962
434	0.102409764786002
435	0.114301430143014
436	0.109350935093509
437	0.111933574309812
438	0.110875373251611
439	0.109225208235109
440	0.11028340929331
441	0.111090156634711
442	0.114139032950914
443	0.125438734349625
444	0.121672167216722
445	0.128487610665828
446	0.128021373565928
447	0.124129079574624
448	0.119052857666719
449	0.12942008486563
450	0.136020744931636
451	0.137078945989837
452	0.138477657289539
453	0.135769291214836
454	0.145544554455445
455	0.14990308554665
456	0.145078317355545
457	0.136020744931636
458	0.141563203939441
459	0.138388600764838
460	0.139446801823039
461	0.131070249882131
462	0.122478914558123
463	0.123196605374823
464	0.122389858033422
465	0.127214626224527
466	0.130981193357431
467	0.141222693697941
468	0.131913667557232
469	0.134622033631935
470	0.135213997590235
471	0.137330399706637
472	0.141814657656242
473	0.146765152705747
474	0.158908271779559
475	0.147949080622348
476	0.147949080622348
477	0.147105662947247
478	0.145204044213945
479	0.134836817015035
480	0.130604012782231
481	0.124003352716224
482	0.132468961181832
483	0.126119754832626
484	0.122353187699722
485	0.131070249882131
486	0.116003981350516
487	0.121886950599822
488	0.135088270731835
489	0.144271570014144
490	0.141437477081041
491	0.14050500288124
492	0.128147100424328
493	0.126371208549426
494	0.111430666876212
495	0.121797894075122
496	0.122389858033422
497	0.126407878883126
498	0.129456755199329
499	0.122389858033422
500	0.123448059091623
501	0.12992299229923
502	0.128990518099429
503	0.125223950966525
504	0.117098852742417
505	0.118282780659018
506	0.112991775368013
507	0.112525538268113
508	0.118067997275918
509	0.124202420242024
510	0.126910786316727
511	0.127377023416627
512	0.123144219183823
513	0.12961915239143
514	0.110786316726911
515	0.112562208601813
516	0.114678610718215
517	0.105029074336005
518	0.109387605427209
519	0.113279899418513
520	0.102446435119703
521	0.102446435119703
522	0.0976216669285975
523	0.0966891927287966
524	0.0983393577452982
525	0.099057048561999
526	0.105065744669705
527	0.101891141495102
528	0.1002409764786
529	0.100832940436901
530	0.103075069411703
531	0.104850961286605
532	0.101210121012101
533	0.0959191157210959
534	0.0916863114882915
535	0.0947351878044947
536	0.0867358164387866
537	0.0866100895803867
538	0.0819110482476819
539	0.0770862800565771
540	0.0820367751060821
541	0.080978574047881
542	0.0762795327151762
543	0.0795798627481794
544	0.0813557546230814
545	0.0662894860914663
546	0.0582901147257583
547	0.062056681858662
548	0.0582901147257583
549	0.0594740426423594
550	0.057949604484258
551	0.0546492744512547
552	0.0486405783435486
553	0.0524071454764524
554	0.0529991094347531
555	0.0414479543192415
556	0.0474566504269475
557	0.051940908376552
558	0.0588820786840589
559	0.0534653465346535
560	0.0468646864686469
561	0.0402640264026403
562	0.0442820472523444
563	0.046990413327047
564	0.0516894546597517
565	0.0514380009429515
566	0.0422547016606422
567	0.0444968306354445
568	0.0423804285190424
569	0.0408559903609408
570	0.031206453978731
571	0.0316726910786316
572	0.0296820158206297
573	0.0248572476295248
574	0.0275656137042276
575	0.0133060925140134
576	0.0121221645974122
577	0.021090680496621
578	0.0240505002881242
579	0.0175755670805176
580	0.0159254020640159
581	0.0173241133637172
582	0.0146157472890146
583	0.0152077112473151
584	0.0265074126460265
585	0.0349730211116349
586	0.0220598250301222
587	0.0262926292629263
588	0.0105086699146105
589	-0.00574152653360571
590	-0.0126826968411127
591	-0.0131489339410131
592	-0.0155167897742156
593	-0.012090732882812
594	-0.0185656660904184
595	-0.021274032165121
596	-0.028807166430929
597	-0.025040599298025
598	-0.0235161611399236
599	-0.0185656660904184
600	-0.0203415579653204
601	-0.0272827282728274
602	-0.0359997904552362
603	-0.0256325632563258
604	-0.021274032165121
605	-0.017847975273718
606	-0.017847975273718
607	-0.0184399392320184
608	-0.0211483053067212
609	-0.0255068363979254
610	-0.0253811095395252
611	-0.0317303158887315
612	-0.0365550840798365
613	-0.0312640787888311
614	-0.0284299858557283
615	-0.0183142123736183
616	-0.0177222484153178
617	-0.0127717533658128
618	-0.0151396091990151
619	-0.0307978416889306
620	-0.0352820996385352
621	-0.0346901356802348
622	-0.0317303158887315
623	-0.0284299858557283
624	-0.0273717847975273
625	-0.0383309759547383
626	-0.0330399706637332
627	-0.0337576614804338
628	-0.0298653674891299
629	-0.031981769605532
630	-0.0432814710042432
631	-0.0442139452040443
632	-0.0403216512127402
633	-0.0344386819634342
634	-0.0313898056472315
635	-0.0285557127141285
636	-0.0335062077636336
637	-0.0346901356802348
638	-0.0373985017549374
639	-0.0428152339043428
640	-0.0438734349625439
641	-0.0509403321284508
642	-0.0492901671119492
643	-0.0535229713447536
644	-0.0467965844203468
645	-0.0565718476609567
646	-0.0496306773534496
647	-0.0533972444863534
648	-0.058096285819058
649	-0.0504374246948505
650	-0.0543297186861543
651	-0.0668133480014669
652	-0.062921054010163
653	-0.0644454921682645
654	-0.070920425375871
655	-0.0746869925087746
656	-0.071978626434072
657	-0.0806956886164806
658	-0.0851799465660852
659	-0.0808214154748809
660	-0.0775210854418774
661	-0.0726963172507726
662	-0.0662213840431662
663	-0.0642307087851641
664	-0.0591544868772591
665	-0.0635130179684636
666	-0.0576300487191577
667	-0.0537377547278538
668	-0.0526795536696527
669	-0.0506888784116507
670	-0.0523390434281524
671	-0.0426895070459427
672	-0.0405731049295406
673	-0.0373985017549374
674	-0.0346901356802348
675	-0.0428152339043428
676	-0.042940960762743
677	-0.0423489968044424
678	-0.042940960762743
679	-0.0370579915134371
680	-0.0295248572476294
681	-0.0268164911729268
682	-0.0321074964639322
683	-0.0241081250982241
684	-0.0291843470061293
685	-0.0437843784378439
686	-0.0449683063544449
687	-0.0324846770391325
688	-0.0307087851642307
689	-0.0301168212059302
690	-0.0225836869401227
691	-0.0156425166326157
692	-0.0129341505579131
693	-0.00975954738330975
694	-0.0168264445492168
695	-0.00810938236680803
696	0.000356226098800261
697	0.00141442715700135
698	-0.00400230499240406
699	-0.00590392372570592
700	-0.00683639792550694
701	-0.00624443396720631
702	-0.00141966577610142
703	0.0105977264393107
704	0.00399706637330388
705	0.00188066425690181
706	0.00577295824820578
707	0.0160144585887161
708	0.0143642935722145
709	0.015763004871916
710	0.0102205458641101
711	0.00467808685630478
712	-0.00251453716800254
713	0.00996909214731001
714	0.000911519723400978
715	0.00421184975640421
716	0.00446330347320445
717	-0.000361464717900439
718	-0.0127193671748128
719	-0.00235213997590245
720	0.0084813243229086
721	0.0135575462308135
722	0.0114411441144114
723	0.0169836031222169
724	0.00686782964010668
725	-0.00608203677510621
726	-0.00172350568390178
727	-0.00629682015820643
728	-0.0093456964744093
729	-0.0207711247315208
730	-0.0197129236733197
731	-0.00617109329980614
732	-0.00134632510870136
733	-0.00371418094190379
734	-0.00997433076640997
735	-0.0098486039080099
736	-0.01010005762481
737	-0.0117502226413116
738	-0.00975954738330975
739	-0.0013829954424015
740	0.00284980879040286
741	0.00437424694850441
742	0.0108491801561108
743	0.0150819843889151
744	0.0176646236052177
745	0.00729739640630744
746	0.0143642935722145
747	0.0193147886217193
748	0.0235475928545235
749	0.0191890617633191
750	0.00966525223950965
751	0.0107234532977106
752	0.0230813557546231
753	0.0215569175965216
754	0.0229922992299231
755	0.0318350882707318
756	0.0367855833202367
757	0.0396196762533396
758	0.0384357483367385
759	0.0459688826025459
760	0.0443187175860443
761	0.0389019854366389
762	0.0438524804861439
763	0.0433862433862433
764	0.0450364084027449
765	0.0438524804861439
766	0.0439782073445439
767	0.0439782073445439
768	0.0452511917858452
769	0.0392424956781392
770	0.0378437843784378
771	0.0437267536277437
772	0.0356016554036356
773	0.037969511236838
774	0.0455026455026455
775	0.0447849546859449
776	0.0519775787102519
777	0.0565875635182566
778	0.0495206663523495
779	0.0532872334852532
780	0.0403373670700403
781	0.0443553879197444
782	0.042956676620043
783	0.0459164964115458
784	0.043208130336843
785	0.0436743674367436
786	0.0459164964115458
787	0.0498087904028497
788	0.0459164964115458
789	0.049091099586149
790	0.0540415946356541
791	0.0528576667190528
792	0.0394415632039394
793	0.0340248310545341
794	0.0329666299963329
795	0.0366074702708366
796	0.0360155063125361
797	0.0388495992456388
798	0.0377913981874378
799	0.0412174550788411
800	0.0478181151448478
801	0.0435853109120437
802	0.0507779349363509
803	0.0528943370527529
804	0.0495940070197497
805	0.045827439886846
806	0.0438367646288438
807	0.0432448006705433
808	0.0355859395463356
809	0.0345277384881346
810	0.0405364345958406
811	0.0432448006705433
812	0.0352454293048353
813	0.047980512336948
814	0.0437477081041436
815	0.0436219812457436
816	0.0379537953795379
817	0.0259364031641258
818	0.0182775420399183
819	0.0285190423804285
820	0.0205196710147204
821	0.0221698360312221
822	0.0176855780816176
823	0.0151029388653151
824	0.0155691759652156
825	0.0116768819739118
826	0.0208601812562209
827	0.0225103462727225
828	0.0206087275394207
829	0.024034784430824
830	0.0289852794803288
831	0.0279270784221278
832	0.0166273770234167
833	0.0135785007072134
834	0.0129865367489129
835	0.0153543925821154
836	0.0219550526481221
837	0.0222065063649223
838	0.0233904342815235
839	0.0232647074231233
840	0.0233904342815235
841	0.0219917229818221
842	0.0290586201477292
843	0.0201267745822202
844	0.0115354392582115
845	0.0241447954319242
846	0.0273193986065273
847	0.0324846770391325
848	0.0303682749227303
849	0.0266017077898266
850	0.0207187385405208
851	0.0261354706899261
852	0.0275708523233276
853	0.012038346691812
854	0.00920425375870915
855	0.00907852690030919
856	0.00637016082560649
857	0.00873801665880869
858	0.0119126198334119
859	0.02993870815653
860	0.0278223060401278
861	0.0207554088742207
862	0.0229975378490229
863	0.0214730996909215
864	0.0235895018073236
865	0.0161820943999161
866	0.0232489915658232
867	0.0337419456231338
868	0.0311593064068312
869	0.027984703232228
870	0.0336528890984338
871	0.0325946880402326
872	0.0316622138404317
873	0.0382628739064382
874	0.0372046728482373
875	0.0325056315155325
876	0.0311069202158309
877	0.0353397244486353
878	0.0347477604903347
879	0.0336895594321337
880	0.0308554664990309
881	0.0341557965320342
882	0.0268374456493269
883	0.0314107601236313
884	0.0365760385562366
885	0.0297605951071297
886	0.0345853632982345
887	0.0499030855466499
888	0.0524857247629525
889	0.0623867148619623
890	0.0606108229870606
891	0.0596783487872596
892	0.0498140290219498
893	0.0573471632877574
894	0.0546387972130546
895	0.0565404159463565
896	0.0532400859133533
897	0.057132379904657
898	0.0511236837969512
899	0.0538320498716538
900	0.0515899208968517
901	0.0428728587144429
902	0.0498140290219498
903	0.0539211063963539
904	0.0562889622295564
905	0.0493477919220493
906	0.0544240138299544
907	0.0518047042799519
908	0.052988632196553
909	0.0624233851956625
910	0.063822096495364
911	0.0542982869715544
912	0.0527738488134528
913	0.0613651841374613
914	0.0519304311383519
915	0.0545130703546546
916	0.0617056943789619
917	0.0564146890879564
918	0.0694902823615695
919	0.0712661742364712
920	0.0641992770705642
921	0.0657237152286657
922	0.0586568180627587
923	0.0511236837969512
924	0.0624233851956625
925	0.0597150191209597
926	0.0688983184032688
927	0.0700822463198701
928	0.0611504007543612
929	0.0548011944051549
930	0.0598774163130599
931	0.0619938184294621
932	0.0609356173712611
933	0.0647021845041648
934	0.0656346587039656
935	0.0696526795536696
936	0.0713028445701713
937	0.0647021845041648
938	0.0635182565875636
939	0.0721095919115722
940	0.0594111792131594
941	0.0511603541306511
942	0.0484519880559485
943	0.045062601498245
944	0.0474304573314474
945	0.0599140866467598
946	0.0511970244643511
947	0.0480224212897481
948	0.0501388234061502
949	0.0588558855885588
950	0.0613494682801612
951	0.0705327675624706
952	0.0684163654460687
953	0.0619414322384619
954	0.0715909686206717
955	0.077007700770077
956	0.0797160668447796
957	0.0839488710775839
958	0.0773482110115774
959	0.0851327989941851
960	0.0624076693383623
961	0.0538163340143538
962	0.0577086280056578
963	0.0632510870134633
964	0.0653674891298655
965	0.0763266802870762
966	0.0779768453035778
967	0.0773848813452773
968	0.0676096181046677
969	0.0644350149300645
970	0.0737440410707736
971	0.0731520771124731
972	0.0751427523704751
973	0.0765414636701766
974	0.0748912986536749
975	0.0673581643878675
976	0.0639321074964638
977	0.0627481795798627
978	0.0492063492063493
979	0.0387133951490389
980	0.0457802923149457
981	0.0388391220074388
982	0.0436638901985438
983	0.0466237099900466
984	0.0369741736078371
985	0.0380323746660381
986	0.041081250982241
987	0.0367227198910367
988	0.0251715647755252
989	0.0144638273351145
990	0.00904709518570912
991	0.00481429095290475
992	0.0132798994185133
993	0.025045837917125
994	0.0192885955262193
995	0.0188223584263189
996	0.0251715647755252
997	0.0182303944680183
998	0.0237728534758237
999	0.0340143538163341
1000	0.042139452040442
1001	0.0393053591073393
1002	0.044973544973545
1003	0.0374404107077374
1004	0.0241500340510241
1005	0.031091204358531
1006	0.0327413693750327
1007	0.0256744722091256
1008	0.0313426580753313
1009	0.0361674262664361
1010	0.034051024150034
1011	0.028885745717429
1012	0.0299439467756301
1013	0.0434857771491436
1014	0.0442034679658443
1015	0.0452616690240453
1016	0.0351458955419353
1017	0.0227879930850229
1018	0.0250301220598252
1019	0.0216040651684215
1020	0.0320970192257322
1021	0.0320970192257322
1022	0.0363298234585364
1023	0.0325632563256326
1024	0.0370475142752371
1025	0.0277384881345278
1026	0.0256220860181257
1027	0.0260883231180262
1028	0.0265545602179267
1029	0.0268950704594269
1030	0.0326523128503327
1031	0.0325265859919325
1032	0.0299439467756301
1033	0.031002147833831
1034	0.0279532715176278
1035	0.0280789983760282
1036	0.0280423280423281
1037	0.0291005291005292
1038	0.0345172612499345
1039	0.0339619676253341
1040	0.0286709623343288
1041	0.0509298548902508
1042	0.0581224789145581
1043	0.0661218502802662
1044	0.0599874273141598
1045	0.0635025407302636
1046	0.0547854785478548
1047	0.0483105453402484
1048	0.0520771124731521
1049	0.0582115354392582
1050	0.0562208601812562
1051	0.0684530357797685
1052	0.0716276389543715
1053	0.0668028707632669
1054	0.0607941746555607
1055	0.0520771124731521
1056	0.0511446382733511
1057	0.0416208287495415
1058	0.0327780397087326
1059	0.0348944418251349
1060	0.0266436167426267
1061	0.0347687149667347
1062	0.0278275446592278
1063	0.031002147833831
1064	0.0280423280423281
1065	0.0263921630258265
1066	0.0240243071926239
1067	0.0175493739850177
1068	0.0137828068521137
1069	0.0148410079103148
1070	0.0175493739850177
1071	0.00824034784430827
1072	0.00929854890250936
1073	0.0157734821101156
1074	0.016024935826916
1075	0.0166168997852166
1076	0.010948713919011
1077	0.00895803866100886
1078	0.0148410079103148
1079	0.0246162711509246
1080	0.0285085651422285
1081	0.0226255958929226
1082	0.0195767195767196
1083	0.0201686835350201
1084	0.0313426580753313
1085	0.0364188799832363
1086	0.0353606789250352
1087	0.0364188799832363
1088	0.0403111739745404
1089	0.0357378595002358
1090	0.0284561789512284
1091	0.0224474828435225
1092	0.0153805856776155
1093	0.0209230446854209
1094	0.0158468227775157
1095	0.0316307821258318
1096	0.0216407355021218
1097	0.0188066425690188
1098	0.0236314107601237
1099	0.0204568075855204
1100	0.0137304206611136
1101	0.0050133584787051
1102	0.00526481219550512
1103	-0.00416994080360411
1104	0.00112106448740112
1105	0.00899470899470911
1106	0.00192781182880197
1107	0.000277646812300358
1108	0.00133584787050134
1109	-0.0104300906281104
1110	-0.019021425952119
1111	-0.0316307821258316
1112	-0.0225732097019226
1113	-0.0209230446854208
1114	-0.0357378595002357
1115	-0.0343391482005344
1116	-0.04000733406674
1117	-0.0287966891927288
1118	-0.0239719210016239
1119	-0.0177484415108178
1120	-0.0203310807271203
1121	-0.0302320708261302
1122	-0.0245638849599245
1123	-0.0265545602179267
1124	-0.0161873330190162
1125	-0.0152548588192152
1126	-0.0183037351354184
1127	-0.0145371680025146
1128	-0.0207606474933207
1129	-0.0168683535020169
1130	-0.0172088637435173
1131	-0.025082508250825
1132	-0.0294410393420295
1133	-0.0340510241500341
1134	-0.030876420975431
1135	-0.0279532715176278
1136	-0.033961967625334
1137	-0.0371365707999373
1138	-0.0395934831578395
1139	-0.0456021792655457
1140	-0.0504269474566504
1141	-0.0557179527476557
1142	-0.0636282675886636
1143	-0.053853004348054
1144	-0.0571533343810572
1145	-0.061978102572162
1146	-0.0565613704227566
1147	-0.0607941746555608
1148	-0.0646864686468646
1149	-0.0673948347215673
1150	-0.0788202629786787
1151	-0.083053067211483
1152	-0.0990518099428992
1153	-0.102352139975902
1154	-0.105652470008906
1155	-0.0987112997013988
1156	-0.0916444025354918
1157	-0.0904604746188905
1158	-0.0913929488186915
1159	-0.0896170569437895
1160	-0.0830163968777831
1161	-0.0793755566032794
1162	-0.0871601445858873
1163	-0.0767929173869768
1164	-0.0772591544868774
1165	-0.0739588244538741
1166	-0.0774739378699774
1167	-0.0729896799203729
1168	-0.0652050919377651
1169	-0.0626224527214626
1170	-0.0566137566137566
1171	-0.048954895489549
1172	-0.0488291686311488
1173	-0.0547121378804548
1174	-0.0604693802713605
1175	-0.0621195452878621
1176	-0.0691864424537691
1177	-0.0583529781549584
1178	-0.0642359474042642
1179	-0.0654198753208655
1180	-0.0619938184294621
1181	-0.0559851223217558
1182	-0.0641102205458643
1183	-0.0690607155953692
1184	-0.0636439834459637
1185	-0.0802346901356803
1186	-0.0787102519775787
1187	-0.0748179579862749
1188	-0.0739745403111739
1189	-0.0824401487767823
1190	-0.0733825763528734
1191	-0.063984493687464
1192	-0.0570433233799569
1193	-0.0353397244486353
1194	-0.0433390958143433
1195	-0.0443972968725443
1196	-0.055948451988056
1197	-0.0404159463565404
1198	-0.0344072502488345
1199	-0.0371156163235371
1200	-0.0289905180994289
1201	-0.0293310283409294
1202	-0.0264969354078264
1203	-0.0325056315155325
1204	-0.0193043113835194
1205	-0.0240033527162238
1206	-0.0249358269160249
1207	-0.0303525590654302
1208	-0.0339933993399339
1209	-0.0285766671905286
1210	-0.0222274608413223
1211	-0.0221017339829221
1212	-0.0144428728587145
1213	-0.0188014039499187
1214	-0.0198596050081198
1215	-0.00809366650950805
1216	-0.00360940855990355
1217	0.00946618471370964
1218	0.0134842055634135
1219	0.00984336528890983
1220	0.0122112211221121
1221	0.0161035151134162
1222	0.035062077636335
1223	0.0370527528943372
1224	0.05000261930955
1225	0.0445858871601444
1226	0.0324794384200323
1227	0.0308292734035307
1228	0.0250720310126249
1229	0.0297710723453297
1230	0.0274398868458274
1231	0.0317984179370318
1232	0.0479228875268479
1233	0.0473309235685473
1234	0.0475823772853478
1235	0.0499502331185498
1236	0.0485515218188486
1237	0.0518518518518519
1238	0.0545602179265546
1239	0.061035151134161
1240	0.0535020168683537
1241	0.0425428257111425
1242	0.0436010267693436
1243	0.0425428257111425
1244	0.0317093614123317
1245	0.0351354183037351
1246	0.0463093928440462
1247	0.0413588977945414
1248	0.0498245062601498
1249	0.0618418984755619
1250	0.0558332023678558
1251	0.0624338624338625
1252	0.0650165016501649
1253	0.0674734140080674
1254	0.0644245376918644
1255	0.0617161716171616
1256	0.0595997695007595
1257	0.0579496044842579
1258	0.0573576405259574
1259	0.0614647179003615
1260	0.0611242076588611
1261	0.0555817486510556
1262	0.0518151815181519
1263	0.0529991094347531
1264	0.0520666352349519
1265	0.0513489444182514
1266	0.0447482843522448
1267	0.0439048666771439
1268	0.0443711037770443
1269	0.0363717324113364
1270	0.0456807585520457
1271	0.0315469642202316
1272	0.026004505212426
1273	0.0133060925140133
1274	0.0154224946304155
1275	0.0178794069883179
1276	0.0275289433705275
1277	0.0234218659961233
1278	0.0152967677720153
1279	0.0287128712871286
1280	0.0254125412541254
1281	0.0215202472628215
1282	0.0197443553879199
1283	0.0246948504374247
1284	0.0427209387605427
1285	0.0293048352454293
1286	0.0362460055529362
1287	0.0443711037770443
1288	0.0326942218031328
1289	0.0299858557284299
1290	0.0366755723191368
1291	0.0302006391115301
1292	0.0345591702027347
1293	0.0339672062444339
1294	0.0150977002462149
1295	0.0216983603122216
1296	0.0227565613704229
1297	0.0329980617109329
1298	0.0295720048195297
1299	0.026863638744827
1300	0.026863638744827
1301	0.016962648645817
1302	0.0116716433548117
1303	0.00401278223060408
1304	0.00790507622190795
1305	0.000120488239300109
1306	-0.00847084708470858
1307	-0.0149457802923149
1308	-0.0127036513175127
1309	-0.00398658913510397
1310	-0.0131698884174133
1311	-0.0191785845251191
1312	-0.0174026926502173
1313	-0.0105872492011106
1314	-0.0132956152758132
1315	-0.0181203834669181
1316	-0.0229451516580228
1317	-0.0315364869820316
1318	-0.036020744931636
1319	-0.0449892608308449
1320	-0.0478233537639479
1321	-0.0461731887474462
1322	-0.0457069516475457
1323	-0.0586568180627586
1324	-0.0720729215778719
1325	-0.074063596835874
1326	-0.0674629367698676
1327	-0.0584053643459583
1328	-0.0502802661218503
1329	-0.0499397558803498
1330	-0.0526481219550528
1331	-0.0616166378542616
1332	-0.0606841636544606
1333	-0.05996647283776
1334	-0.0573838336214574
1335	-0.05996647283776
1336	-0.0600921996961601
1337	-0.0617423647126617
1338	-0.0669076431452668
1339	-0.0591230551626593
1340	-0.0683063544449682
1341	-0.0572214364293571
1342	-0.0528629053381529
1343	-0.0465136989889464
1344	-0.0548535805961547
1345	-0.0607365498454607
1346	-0.0732201791607732
1347	-0.0747446173188747
1348	-0.0735606894022734
1349	-0.071192833569071
1350	-0.0776677667766776
1351	-0.0728429985855726
1352	-0.0793179317931794
1353	-0.0874430300172874
1354	-0.0868510660589867
1355	-0.0722510346272723
1356	-0.0796584420346796
1357	-0.0819005710094818
1358	-0.0838912462674838
1359	-0.0891822515584892
1360	-0.0903661794750904
1361	-0.0747079469851748
1362	-0.0768243491015769
1363	-0.0697574519356697
1364	-0.0716224003352716
1365	-0.0765728953847766
1366	-0.0747970035098746
1367	-0.0746712766514747
1368	-0.0778458798260777
1369	-0.0775053695845775
1370	-0.0717481271936719
1371	-0.086940122583687
1372	-0.0809314264759809
1373	-0.0784745141180785
1374	-0.0634082455864634
1375	-0.0675153229608676
1376	-0.0659908848027659
1377	-0.0762323851432761
1378	-0.0864738854837865
1379	-0.0819896275341819
1380	-0.0890565247000891
1381	-0.0785635706427785
1382	-0.0752632406097751
1383	-0.074079312693174
1384	-0.0779716066844779
1385	-0.086096704908586
1386	-0.0777568233013777
1387	-0.069039761118969
1388	-0.0753889674681755
1389	-0.0672638692440674
1390	-0.0714966734768714
1391	-0.0704384724186704
1392	-0.073146838493373
1393	-0.0742050395515741
1394	-0.0725548745350725
1395	-0.0767876787678767
1396	-0.0687883074021688
1397	-0.0641783225941641
1398	-0.0723034208182722
1399	-0.0705275289433706
1400	-0.0732358950180733
1401	-0.0680339462517682
1402	-0.0603750851275602
1403	-0.0457750536958458
1404	-0.0377756823301377
1405	-0.0314264759809315
1406	-0.0296505841060297
1407	-0.0296505841060297
1408	-0.0209335219236209
1409	-0.0274084551312272
1410	-0.0318927130808319
1411	-0.0219917229818218
1412	-0.0282152024726282
1413	-0.0270312745560271
1414	-0.0264393105977264
1415	-0.0172560113154173
1416	-0.0121797894075123
1417	-0.00794698517470804
1418	-0.0103148410079104
1419	-0.0197129236733197
1420	-0.0121797894075123
1421	-0.00828749541620821
1422	-0.0106553512494106
1423	-0.0160720833988161
1424	-0.01996437739012
1425	-0.0106553512494106
1426	-0.0167897742155168
1427	-0.015983026874116
1428	-0.014924825815915
1429	-0.00975954738330975
1430	-0.00421708837550416
1431	-0.00468332547540462
1432	0.00403373670700413
1433	-0.00256692335900255
1434	-0.0156425166326156
1435	-0.00975954738330975
1436	-0.00789459898370803
1437	-0.0206296820158205
1438	-0.00755408874220753
1439	-0.012845094033213
1440	-0.0141547488082141
1441	-0.0196972078160196
1442	-0.0187647336162188
1443	-0.0132222746084132
1444	-0.024055738907224
1445	-0.0186390067578185
1446	-0.00522290324270513
1447	0.00476714338100481
1448	0.00442663313950431
1449	0.00607679815600604
1450	0.00548483419770551
1451	0.0027764681230027
1452	0.00971763843050966
1453	0.0121745507884122
1454	0.0138247158049138
1455	0.0224160511289223
1456	0.0105243857719106
1457	0.02004819529572
1458	0.0292314945780292
1459	0.0301639687778302
1460	0.0305044790193305
1461	0.0256797108282256
1462	0.0112054062549113
1463	0.00849704018020836
1464	0.0122636073131123
1465	0.00553722038870563
1466	0.0083713133218084
1467	0.00083817905600081
1468	-0.00868563046780857
1469	-0.0038608622767039
1470	0.00168159673110158
1471	0.00946618471370964
1472	0.0171250458379171
1473	0.0160668447797161
1474	0.0118340405469117
1475	0.0113678034470114
1476	0.022075540887422
1477	0.0111530200639112
1478	0.0110272932055109
1479	0.0238514327623239
1480	0.0167845355964167
1481	0.0206768295877205
1482	0.0112787469223115
1483	0.0145790769553147
1484	0.00657970558960663
1485	0.00518099428990526
1486	0.0148305306721148
1487	0.0150819843889152
1488	0.0108491801561108
1489	0.0177903504636179
1490	0.000141442715700046
1491	0.00649064906490637
1492	0.00530672114830522
1493	0.00754885012310746
1494	0.00674210278170673
1495	-0.00938236680810944
1496	0.00415946356540409
1497	-0.0131489339410131
1498	-0.0131489339410131
1499	-0.0145476452407146
1500	-0.0219550526481219
1501	-0.0241971816229243
1502	-0.0406988317879408
1503	-0.0556393734611558
1504	-0.061988579810362
1505	-0.0657551469432658
1506	-0.0623290900518623
1507	-0.0643197653098643
1508	-0.0573785950023573
1509	-0.0578448321022579
1510	-0.0509036617947509
1511	-0.0470113678034469
1512	-0.0465451307035466
1513	-0.0347791922049349
1514	-0.0263135837393264
1515	-0.0380795222379381
1516	-0.0483210225784484
1517	-0.0420975430876421
1518	-0.0464560741788465
1519	-0.0429042904290429
1520	-0.0333804809052334
1521	-0.035837393263136
1522	-0.0347791922049349
1523	-0.037953795379538
1524	-0.0335952642883336
1525	-0.0388862695793388
1526	-0.0498454607365499
1527	-0.0507779349363507
1528	-0.0592435434019593
1529	-0.0589030331604589
1530	-0.0745612656503747
1531	-0.0686782964010686
1532	-0.0600869610770599
1533	-0.0698622243176699
1534	-0.0659699303263659
1535	-0.0680863324427681
1536	-0.054885012310755
1537	-0.0505264812195505
1538	-0.0407512179789408
1539	-0.0511184451778512
1540	-0.0306354444968305
1541	-0.0267431505055268
1542	-0.0213264183561214
1543	-0.0142595211902141
1544	-0.0165016501650165
1545	-0.00613442296610622
1546	-0.00566818586620566
1547	-0.0109591911572109
1548	-0.00964953638220967
1549	-0.00541673214940552
1550	-0.00152443815810144
1551	-0.0102415003405104
1552	-0.0144743045733146
1553	-0.017056943789617
1554	-0.0137566137566136
1555	-0.0132903766567134
1556	-0.0176489077479177
1557	-0.0194247996228194
1558	-0.0116402116402117
1559	-0.0195138561475194
1560	-0.0228141861805229
1561	-0.0229399130389231
1562	-0.00880611870710868
1563	-0.0115144847818114
1564	-0.00622347949080604
1565	-0.0121064487401119
1566	0.008968515899209
1567	0.00295981979150284
1568	0.006134422966106
1569	0.0187071088061187
1570	0.0158730158730158
1571	0.00432186075750429
1572	-0.00452092828330453
1573	-0.00346272722510343
1574	-0.0134894441825134
1575	-0.00866467599140863
1576	-0.00959715019120966
1577	-0.0179737021321179
1578	-0.0194090837655194
1579	-0.015050552674315
1580	-0.0138666247577139
1581	-0.00785792865000801
1582	-0.00950809366650962
1583	-0.0135261145162134
1584	-0.0169521714076171
1585	-0.0226203572738226
1586	-0.00708785164230707
1587	-0.0173293519828173
1588	-0.0183875530410182
1589	-0.0153386767248153
1590	-0.0153386767248153
1591	0.00527005081460508
1592	-0.00378752160930385
1593	0.00433757661480438
1594	0.00751217978940744
1595	0.003153648698203
1596	0.0144533500969146
1597	0.00844465398920835
1598	0.0045523599979046
1599	0.00265074126460274
1600	0.0114568599717114
1601	0.0233485253287232
1602	0.031133113311331
1603	0.0339672062444339
1604	0.0444234899680443
1605	0.0433652889098433
1606	0.0411231599350411
1607	0.0339305359107339
1608	0.0375713761852378
1609	0.034988736968935
1610	0.0402797422599404
1611	0.0407459793598408
1612	0.0336790821939337
1613	0.0294462779611293
1614	0.0291948242443292
1615	0.0329613913772329
1616	0.036135994551836
1617	0.0313112263607312
1618	0.0286028602860285
1619	0.022002200220022
1620	0.0228089475614228
1621	0.0165487977369165
1622	0.0217140761695218
1623	0.0204044213945204
1624	0.0238304782859239
1625	0.027005081460527
1626	0.0473623552831474
1627	0.0577295824820577
1628	0.0645450259311646
1629	0.0660694640892662
1630	0.0551469432657551
1631	0.0509141390329508
1632	0.0449054429252449
1633	0.0394887107758395
1634	0.0544292524490545
1635	0.051039865891351
1636	0.053030541149353
1637	0.043003824191943
1638	0.0393629839174393
1639	0.0342867620095342
1640	0.0256954266855256
1641	0.0114359054953114
1642	0.00200115249620203
1643	-0.00388181675310395
1644	-0.00895803866100897
1645	-0.00578343548640581
1646	-0.0116664047357119
1647	-0.0150924616271151
1648	-0.0152181884855153
1649	-0.0165278432605165
1650	-0.02007962701032
1651	-0.0282047252344283
1652	-0.0136046938027136
1653	-0.00678925035360678
1654	-0.0106815443449108
1655	-0.014914348577715
1656	-0.0223217559851223
1657	-0.0240976478600241
1658	-0.015972549635916
1659	-0.0127979464613129
1660	-0.0125831630782127
1661	-0.0033998637959034
1662	-0.00399182775420392
1663	-0.00682592068730692
1664	-0.00542720938760544
1665	-0.00813557546230803
1666	-0.0028445701713028
1667	-0.0139294881869141
1668	0.000544816386400582
1669	0.00642778563570645
1670	0.0146786107182147
1671	0.00926187856880945
1672	0.0191628686678191
1673	0.0184451778511184
1674	0.017978940751218
1675	0.0138718633768138
1676	0.0165802294515166
1677	0.0191628686678191
1678	0.0192885955262193
1679	0.0111634973021112
1680	0.0155220283933155
1681	0.0230551626591231
1682	0.0196291057677196
1683	0.0116297344020116
1684	0.0195033789093195
1685	0.0152705746765153
1686	0.0284718948085284
1687	0.0265702760752266
1688	0.0346953742993347
1689	0.0445963643983446
1690	0.0453140552150454
1691	0.0447220912567448
1692	0.0358793022159358
1693	0.0411703075069412
1694	0.039053905390539
1695	0.0411703075069412
1696	0.0412593640316412
1697	0.0436272198648437
1698	0.0450259311645449
1699	0.049043952014249
1700	0.0459950756980458
1701	0.03998637959034
1702	0.0312693174079313
1703	0.0332599926659332
1704	0.0351616113992351
1705	0.0315207711247316
1706	0.0222117449840223
1707	0.0169207396930169
1708	0.0184451778511184
1709	0.0105715333438106
1710	0.00985384252710997
1711	0.0104458064854105
1712	0.0111634973021112
1713	0.0229294358007229
1714	0.0223374718424222
1715	0.0197548326261198
1716	0.0198805594845199
1717	0.0262297658337263
1718	0.0245796008172247
1719	0.036005029074336
1720	0.0380323746660381
1721	0.0313059877416314
1722	0.0407407407407407
1723	0.0407407407407407
1724	0.0536906071559536
1725	0.0477185813819478
1726	0.0397192100162398
1727	0.0321860757504322
1728	0.0348944418251349
1729	0.0300696736340299
1730	0.014070930902614
1731	0.0323118026088324
1732	0.0469118340405469
1733	0.0463198700822464
1734	0.0478443082403479
1735	0.0451359421656452
1736	0.0407774110744408
1737	0.0434857771491436
1738	0.0404369008329406
1739	0.0404369008329406
1740	0.0464455969406466
1741	0.0464455969406466
1742	0.045979359840746
1743	0.0496202001152497
1744	0.0425533029493427
1745	0.041028864791241
1746	0.0312536015506313
1747	0.0430195400492431
1748	0.0420870658494422
1749	0.0383204987165383
1750	0.0293886531510295
1751	0.0383571690502381
1752	0.0452983393577454
1753	0.0425899732830425
1754	0.0381057153334381
1755	0.0345906019173344
1756	0.051092252082351
1757	0.0532086541987531
1758	0.0599350411231599
1759	0.045926973649746
1760	0.0366179475090367
1761	0.044994499449945
1762	0.0395777673005395
1763	0.0380533291424382
1764	0.0326365969930326
1765	0.0274713185604275
1766	0.0297134475352298
1767	0.0242967153858245
1768	0.0363141076012364
1769	0.0351301796846351
1770	0.0271308083189271
1771	0.0297134475352298
1772	0.035847870501336
1773	0.0212478390696212
1774	0.0198491277699198
1775	0.0176069987951176
1776	0.0225574938446227
1777	0.0231494578029232
1778	0.0243333857195244
1779	0.0195086175284196
1780	0.0330504479019331
1781	0.0250510765362251
1782	0.0157420503955158
1783	0.0110430090628111
1784	0.0159935041123159
1785	-0.00283933155220273
1786	-0.00554769762690566
1787	-0.00719786264340727
1788	-0.00694640892660681
1789	-0.00800460998480812
1790	-0.018963801142019
1791	-0.0239142961915241
1792	-0.0340300696736341
1793	-0.0344963067735345
1794	-0.0377966368065378
1795	-0.0383886007648383
1796	-0.0461731887474462
1797	-0.0432133689559431
1798	-0.0443972968725443
1799	-0.0475719000471476
1800	-0.0432133689559431
1801	-0.0401278223060402
1802	-0.0449525904971448
1803	-0.0487191576300485
1804	-0.0541358897794543
1805	-0.0555346010791554
1806	-0.0463513017968464
1807	-0.036109801456336
1808	-0.0245586463408245
1809	-0.0271412855571272
1810	-0.0301011053486301
1811	-0.0349258735397349
1812	-0.0332757085232332
1813	-0.0266750484572266
1814	-0.0345486929645346
1815	-0.0392477342972394
1816	-0.0414898632720413
1817	-0.047032322279847
1818	-0.0593902247367593
1819	-0.0507988894127509
1820	-0.0638744826863639
1821	-0.0610403897532609
1822	-0.0596416784535595
1823	-0.0678925035360678
1824	-0.0844832102257844
1825	-0.0959086384828959
1826	-0.0729687254439729
1827	-0.0704751427523705
1828	-0.0678925035360678
1829	-0.0678925035360678
1830	-0.0696683954109696
1831	-0.050961286604851
1832	-0.0497773586882496
1833	-0.0583686940122584
1834	-0.0593011682120592
1835	-0.0622243176698623
1836	-0.0681072869191681
1837	-0.0665828487610666
1838	-0.075174184085075
1839	-0.0756404211849755
1840	-0.0830478285923829
1841	-0.0875320865419876
1842	-0.0813086070511813
1843	-0.0846979936088845
1844	-0.0871549059667872
1845	-0.0671381423856672
1846	-0.0567709151867568
1847	-0.0469956519461471
1848	-0.0581696264864582
1849	-0.0408612289800409
1850	-0.0375608989470376
1851	-0.0274451254649274
1852	-0.0427628477133428
1853	-0.0549950233118549
1854	-0.0631201215359631
1855	-0.0503850385038502
1856	-0.0483943632458483
1857	-0.0605374823196605
1858	-0.0588873173031589
1859	-0.0518204201372519
1860	-0.0459374508879459
1861	-0.0480538530043481
1862	-0.0581696264864582
1863	-0.0609670490858608
1864	-0.0593168840693592
1865	-0.0539001519199539
1866	-0.0468332547540469
1867	-0.0414165226046415
1868	-0.052124260045052
1869	-0.0656660904185656
1870	-0.0519985331866522
1871	-0.0506888784116507
1872	-0.0556393734611558
1873	-0.0514065692283515
1874	-0.037021321179737
1875	-0.0333438105715335
1876	-0.0385090890041384
1877	-0.0355492692126355
1878	-0.042956676620043
1879	-0.038006181570538
1880	-0.0342396144376342
1881	-0.0321232123212321
1882	-0.0251820420137253
1883	-0.027046990413327
1884	-0.0253968253968253
1885	-0.0292891193881294
1886	-0.0184556550893185
1887	-0.00833988160720822
1888	-0.00728168054900702
1889	-0.00410707737440386
1890	-0.0109225208235109
1891	-0.00808842789040809
1892	-0.00432186075750418
1893	0.0102781706742101
1894	0.0119283356907121
1895	0.0266540939808266
1896	0.0236052176646235
1897	0.0193724134318192
1898	0.0157315731573158
1899	0.0282152024726283
1900	0.0288071664309288
1901	0.0209335219236209
1902	0.0252920530148253
1903	0.0276599088480278
1904	0.0351930431138352
1905	0.0275341819896273
1906	0.0271570014144273
1907	0.0225836869401226
1908	0.0221174498402221
1909	0.0213997590235213
1910	0.0251663261564252
1911	0.0295248572476294
1912	0.0374351720886372
1913	0.0342605689140343
1914	0.0302792183980303
1915	0.0271046152234271
1916	0.0483053067211485
1917	0.0568966420451571
1918	0.0585468070616588
1919	0.0612551731363613
1920	0.0506731625543506
1921	0.0484310335795486
1922	0.0463146314631464
1923	0.0411493530305413
1924	0.0414008067473413
1925	0.0458850646969462
1926	0.0384776572895387
1927	0.0320027240819318
1928	0.0235371156163233
1929	0.0221384043166222
1930	0.022856095133323
1931	0.0121483576929122
1932	-0.010917282204411
1933	-0.0175179422704175
1934	-0.0229346744198227
1935	-0.0163340143538162
1936	-0.0196343443868194
1937	-0.0204410917282203
1938	-0.0193828906700193
1939	-0.0191314369532192
1940	-0.00228927654670219
1941	0.0153596312012154
1942	0.0115930640683113
1943	0.00524385771910518
1944	0.0126512651265125
1945	0.0172612499345171
1946	0.00841846089370835
1947	-0.00795746241290773
1948	-0.0198491277699198
1949	-0.023149457802923
1950	-0.0437581853423434
1951	-0.0586987270155588
1952	-0.0666980983812666
1953	-0.051972340091152
1954	-0.0564565980407563
1955	-0.0569228351406568
1956	-0.0581067630572585
1957	-0.0503221750746503
1958	-0.0493530305411491
1959	-0.052401906857352
1960	-0.0665357011891663
1961	-0.0664099743307667
1962	-0.0685263764471686
1963	-0.0632353711561631
1964	-0.0644192990727643
1965	-0.0680601393472682
1966	-0.0701765414636701
1967	-0.0771177117711772
1968	-0.0791083870291793
1969	-0.0756823301377756
1970	-0.0823720467284823
1971	-0.0786054795955784
1972	-0.0824977735868826
1973	-0.0829640106867828
1974	-0.0926135470689926
1975	-0.104038975326104
1976	-0.106066320917806
1977	-0.112075017025512
1978	-0.104793336476505
1979	-0.099036094085599
1980	-0.105851537534706
1981	-0.111268269684111
1982	-0.12032584210802
1983	-0.123840955524124
1984	-0.121724553407722
1985	-0.112541254125412
1986	-0.095107129760595
1987	-0.0968830216354966
1988	-0.0978154958352977
1989	-0.102640264026403
1990	-0.114872439624915
1991	-0.123840955524124
1992	-0.124558646340825
1993	-0.123034208182723
1994	-0.127984703232228
1995	-0.126675048457227
1996	-0.141275079888941
1997	-0.137382785897638
1998	-0.141615590130442
1999	-0.135140656922835
2000	-0.142333280947142
2001	-0.141275079888941
2002	-0.130693069306931
2003	-0.129294358007229
2004	-0.126711718790927
2005	-0.128828120907329
2006	-0.126711718790927
2007	-0.121169259783121
2008	-0.12036251244172
2009	-0.126837445649327
2010	-0.136486982031536
2011	-0.134244853056734
2012	-0.127303682749227
2013	-0.134030069673634
2014	-0.138854837864739
2015	-0.137707580281838
2016	-0.146550369322647
2017	-0.158567761538059
2018	-0.167284823720467
2019	-0.16952695269527
2020	-0.166818586620567
2021	-0.152218555188852
2022	-0.161150400754361
2023	-0.168934988736969
2024	-0.162119545287862
2025	-0.169312169312169
2026	-0.158730158730159
2027	-0.154031117397454
2028	-0.160631777463461
2029	-0.147467127665147
2030	-0.15017549373985
2031	-0.147467127665147
2032	-0.140866467599141
2033	-0.118392791660118
2034	-0.118733301901619
2035	-0.102608832311803
2036	-0.102734559170203
2037	-0.0976583372622979
2038	-0.0870763266802872
2039	-0.0858923987636859
2040	-0.083184032688983
2041	-0.0923673319712928
2042	-0.0993085022787994
2043	-0.0999895227618002
2044	-0.103164125936403
2045	-0.0953795379537954
2046	-0.0880978574047881
2047	-0.0964377390119964
2048	-0.0922939913038925
2049	-0.09005186232909
2050	-0.0819267641049817
2051	-0.0734611556393734
2052	-0.0678296401068679
2053	-0.0649955471737649
2054	-0.0875949499711874
2055	-0.0782859238304783
2056	-0.0696945885064697
2057	-0.0778196867305778
2058	-0.0844203467965845
2059	-0.0748965372727748
2060	-0.0760804651893761
2061	-0.0700717690816699
2062	-0.0607627429409607
2063	-0.0645293100738646
2064	-0.0760804651893761
2065	-0.069139294881869
2066	-0.0650322175074647
2067	-0.0672743464822672
2068	-0.0588087380166589
2069	-0.0605846298915607
2070	-0.0595264288333595
2071	-0.0525852585258528
2072	-0.0628267588663625
2073	-0.0661270888993659
2074	-0.0671852899575671
2075	-0.0682434910157681
2076	-0.0585939546335583
2077	-0.0517418408507515
2078	-0.0459845984598459
2079	-0.0449263974016447
2080	-0.058038661008958
2081	-0.0593483157839594
2082	-0.0397611189690397
2083	-0.03023730944523
2084	-0.014112839855414
2085	-0.0104719995809104
2086	-0.0147048038137148
2087	-0.011278746922311
2088	-0.011959767405312
2089	-0.0109015663471108
2090	-0.0131436953219133
2091	-0.0109015663471108
2092	-0.0112420765886114
2093	-0.0120488239300121
2094	-0.00214783383100214
2095	-0.00731311226360765
2096	-0.0102729320551105
2097	-0.0179317931793181
2098	-0.0146314631463149
2099	0.00102676934360124
2100	-0.0211063963539211
2101	-0.0241552726701244
2102	-0.031096442977631
2103	-0.0382890670019382
2104	-0.0404054691183404
2105	-0.0382890670019382
2106	-0.037822829902038
2107	-0.0246215097700249
2108	-0.0229713447535234
2109	-0.00777934936350744
2110	-0.00600345748860587
2111	0.00352035203520362
2112	0.00280266121850303
2113	0.00432709937660425
2114	0.0118602336424121
2115	0.0179579862748178
2116	0.0137251820420137
2117	0.0196081512913193
2118	0.0284509403321287
2119	0.0216354968830219
2120	0.0281104300906281
2121	0.0330609251401328
2122	0.0264602650741264
2123	0.0458850646969462
2124	0.0501178689297503
2125	0.0476609565718475
2126	0.0523599979045526
2127	0.056592802137357
2128	0.0692021583110691
2129	0.074026926502174
2130	0.0690764314526691
2131	0.073901199643774
2132	0.0657761014196658
2133	0.0725915448687728
2134	0.0687359212111687
2135	0.0696683954109696
2136	0.062816281628163
2137	0.0585834773953589
2138	0.0605741526533603
2139	0.0595159515951593
2140	0.061758080569962
2141	0.0634082455864635
2142	0.0584577505369583
2143	0.0552831473623552
2144	0.0586725339200589
2145	0.0601969720781603
2146	0.0546545130703548
2147	0.048179579862748
2148	0.0512284561789511
2149	0.0541516056367539
2150	0.0547435695950547
2151	0.0585101367279584
2152	0.0624024307192623
2153	0.0647702865524651
2154	0.0646445596940644
2155	0.0732358950180736
2156	0.0854680706165856
2157	0.0855937974749856
2158	0.07971082822568
2159	0.0774686992508777
2160	0.0680339462517678
2161	0.0749751165592751
2162	0.062957724343863
2163	0.0479805123369481
2164	0.0609303787521609
2165	0.0814133794331814
2166	0.0817905600083816
2167	0.0704908586096704
2168	0.0736654617842737
2169	0.0628319974854628
2170	0.0682487296348684
2171	0.0723558070092722
2172	0.074131698884174
2173	0.0822567971082822
2174	0.086149091099586
2175	0.0954581172402957
2176	0.102399287547803
2177	0.0957986274817957
2178	0.0792969773167793
2179	0.0726963172507729
2180	0.0823458536329824
2181	0.0802294515165802
2182	0.0847137094661846
2183	0.074131698884174
2184	0.0665985646183667
2185	0.0471737649955473
2186	0.056016554036356
2187	0.0542406621614542
2188	0.0345644088218346
2189	0.0344386819634346
2190	0.0214888155482214
2191	0.0296139137723297
2192	0.0365550840798368
2193	0.0420608727539418
2194	0.0467965844203468
2195	0.035963120121536
2196	0.0352454293048352
2197	0.0307611713552308
2198	0.0268688773639268
2199	0.0268688773639268
2200	0.0256849494473258
2201	0.0381685787626382
2202	0.0369846508460372
2203	0.0424013829954425
2204	0.0474776049033474
2205	0.0484100791031482
2206	0.0434962543873436
2207	0.0478547854785478
2208	0.0413798522709414
2209	0.0412541254125414
2210	0.0184032688983184
2211	0.0174707946985175
2212	0.0112473152077113
2213	0.0131489339410131
2214	0.0112839855414113
2215	0.00717690816700722
2216	0.00518623290900511
2217	0.0181360993242183
2218	0.0242705222903241
2219	0.0148357692912149
2220	0.0202525014406203
2221	0.0172036251244172
2222	0.0212216459741212
2223	0.0226203572738224
2224	0.0197862643407201
2225	0.0283775996647284
2226	0.0220283933155221
2227	0.0281628162816281
2228	0.0185132798994185
2229	0.0174550788412176
2230	0.0202891717743203
2231	0.0163968777830166
2232	0.0129708208916131
2233	0.0196972078160198
2234	0.0138142385667137
2235	0.00755408874220764
2236	0.00920425375870937
2237	0.0129708208916131
2238	0.0102624548169103
2239	0.0143695321913142
2240	0.0142438053329144
2241	0.0129341505579128
2242	0.00726596469170726
2243	0.0153910629158156
2244	0.0365917544135366
2245	0.0420084865629422
2246	0.0403583215464405
2247	0.0420084865629422
2248	0.0355335533553356
2249	0.0328251872806327
2250	0.0383676462884384
2251	0.0379014091885379
2252	0.0285923830478285
2253	0.0350673162554351
2254	0.0494158939703495
2255	0.0574152653360573
2256	0.0611818324689613
2257	0.0558908271779559
2258	0.048823930012049
2259	0.0541149353030541
2260	0.0616480695688617
2261	0.0566975745193568
2262	0.0422232699460423
2263	0.0492901671119492
2264	0.0464560741788465
2265	0.0491644402535492
2266	0.0383309759547383
2267	0.0358373932631357
2268	0.0385824296715387
2269	0.0528419508617528
2270	0.0621509770024622
2271	0.0629943946775628
2272	0.0721776939598724
2273	0.0713709466184715
2274	0.0566451883283565
2275	0.0599455183613602
2276	0.0475876159044475
2277	0.0438210487715438
2278	0.0356959505474357
2279	0.0403949918801403
2280	0.0378123526638379
2281	0.0325213473728323
2282	0.0259206873068258
2283	0.0273193986065274
2284	0.0285923830478285
2285	0.0367174812719369
2286	0.0412017392215411
2287	0.0421342134213423
2288	0.0267274346482267
2289	0.0314264759809315
2290	0.0258840169731258
2291	0.0376499554717376
2292	0.021865996123422
2293	0.0173817381738175
2294	0.022924197181623
2295	0.0194981402902195
2296	0.0274975116559277
2297	0.0285557127141287
2298	0.0357483367384359
2299	0.0465818010372465
2300	0.043873434962544
2301	0.0504740950285507
2302	0.0596573943108596
2303	0.0558908271779559
2304	0.0644821625019645
2305	0.067064801718267
2306	0.0613966158520612
2307	0.0676200953428676
2308	0.0540782649693541
2309	0.0514956257530516
2310	0.0648226727434648
2311	0.0820053433914821
2312	0.083870291791084
2313	0.0803185080412804
2314	0.0765519409083768
2315	0.0784168893079784
2316	0.0716905023835716
2317	0.07016606422547
2318	0.0585258525852584
2319	0.0394415632039395
2320	0.0406254911205406
2321	0.046042223269946
2322	0.0409660013620409
2323	0.0311907381214311
2324	0.0376656713290376
2325	0.0387238723872386
2326	0.0391901094871392
2327	0.0414322384619414
2328	0.0296662999633297
2329	0.0575933783854576
2330	0.0532348472942531
2331	0.0427785635706428
2332	0.0466708575619467
2333	0.0603384147938603
2334	0.0610561056105612
2335	0.0650741264602652
2336	0.0590654303525591
2337	0.0667242914767667
2338	0.07002462150977
2339	0.0775577557755773
2340	0.0630834512022631
2341	0.0587249201110589
2342	0.0516580229451518
2343	0.054958352978155
2344	0.051066058986851
2345	0.0335062077636337
2346	0.0335062077636337
2347	0.0416313059877418
2348	0.043747708104144
2349	0.0475142752370474
2350	0.0664728377599665
2351	0.0509403321284509
2352	0.0432814710042433
2353	0.0434071978626434
2354	0.0292734035308293
2355	0.022924197181623
2356	0.0120907328828121
2357	0.0198753208654199
2358	0.0172926816491175
2359	0.0143328618576144
2360	0.0167007176908167
2361	0.00235213997590233
2362	0.0162344805909163
2363	0.0262245272146262
2364	0.0283409293310284
2365	0.0227984703232229
2366	0.0200901042485202
2367	0.0210592487820211
2368	0.0287181099062288
2369	0.0376499554717376
2370	0.0376499554717376
2371	0.0304573314474306
2372	0.0288071664309288
2373	0.026905547697627
2374	0.0283042589973281
2375	0.0366808109382368
2376	0.0284299858557284
2377	0.021829325789722
2378	0.0245376918644244
2379	0.0310126250720308
2380	0.0475142752370474
2381	0.0643564356435644
2382	0.0708313688511708
2383	0.0703651317512705
2384	0.0609670490858609
2385	0.083100214783383
2386	0.0714600031431714
2387	0.0749751165592751
2388	0.0656660904185655
2389	0.0789564670752789
2390	0.0855571271412856
2391	0.0813243229084814
2392	0.0819162868667819
2393	0.0852166168997851
2394	0.0939336790821941
2395	0.0900413850908898
2396	0.0927497511655929
2397	0.101126303106501
2398	0.0968934988736969
2399	0.0930012048823932
2400	0.0976111896903975
2401	0.101377756823301
2402	0.0923201843993922
2403	0.0841950861752843
2404	0.0828854314002831
2405	0.0863114882916864
2406	0.0756037508512757
2407	0.0635863586358634
2408	0.0639268688773638
2409	0.0702760752265703
2410	0.0761590444758762
2411	0.0677824925349677
2412	0.0623657603855623
2413	0.0703651317512705
2414	0.0669390748598669
2415	0.0668133480014668
2416	0.0603384147938603
2417	0.0783645031169782
2418	0.0711718790926712
2419	0.0710461522342711
2420	0.0775210854418775
2421	0.0894127507988894
2422	0.0737545183089739
2423	0.0699879511760702
2424	0.064911729268165
2425	0.056786631044057
2426	0.0439624914872442
2427	0.0446801823039447
2428	0.0543297186861544
2429	0.0516213526114516
2430	0.0232280370894233
2431	0.0173450678401175
2432	0.011084918015611
2433	0.008968515899209
2434	0.000251453716800354
2435	-0.00859133532400869
2436	-0.00740740740740731
2437	0.00165016501650173
2438	-0.00575724239090558
2439	-0.0154067787731154
2440	-0.0131646497983131
2441	-0.00372989679920388
2442	-0.00572057205720577
2443	0.00253025302530263
2444	0.0026559798837027
2445	-0.00216878830740219
2446	0.00984860390800968
2447	0.00549007281680547
2448	0.00785792865000801
2449	0.0143328618576144
2450	0.00375085127560393
2451	-0.0109749070145109
2452	-0.00851799465660852
2453	-0.00276075226570272
2454	0.00193828906700189
2455	-5.2386191000009e-05
2456	0.000880088008800906
2457	0.00972287704960961
2458	0.00523861910000534
2459	-0.00677877311540698
2460	-0.00711928335690715
2461	-0.0151186547226154
2462	-0.00381895332390392
2463	-0.0101681596731102
2464	-0.0112263607313112
2465	-0.00805175755670806
2466	-0.00945046885640943
2467	-0.012876525747813
2468	-0.0143119073812144
2469	-0.0132537063230134
2470	-0.0168945465975168
2471	-0.0273875006548272
2472	-0.0239614437634239
2473	-0.0283199748546283
2474	-0.028068521137828
2475	-0.0298444130127298
2476	-0.0347949080622345
2477	-0.035978835978836
2478	-0.0402116402116401
2479	-0.0322122688459321
2480	-0.0397454031117397
2481	-0.0576457645764576
2482	-0.0594216564513593
2483	-0.0747393786997749
2484	-0.0697888836502699
2485	-0.0726229765833725
2486	-0.0901461574728901
2487	-0.0797789302739798
2488	-0.0803708942322802
2489	-0.0835454974068836
2490	-0.0937869977473936
2491	-0.0922625595892923
2492	-0.0749541620828749
2493	-0.0748284352244748
2494	-0.0774110744407775
2495	-0.0832940436900833
2496	-0.0752946723243754
2497	-0.0795274765571795
2498	-0.0850699355649851
2499	-0.0869715542982867
2500	-0.0832049871653832
2501	-0.0925140133060924
2502	-0.0975902352139975
2503	-0.0945413588977946
2504	-0.0754570695164756
2505	-0.0627219864843626
2506	-0.0656818062758657
2507	-0.0456650426947457
2508	-0.0294148462465295
2509	-0.0249305882969251
2510	-0.0177379642726176
2511	-0.00665304625700691
2512	-0.00559484519880571
2513	-0.0075855204568076
2514	-0.0144009639059144
2515	-0.00708261302320734
2516	0.00341034103410331
2517	0.00717690816700722
2518	-0.00720833988160718
2519	-0.00331604589030321
2520	-0.000607679815600504
2521	0.0021006862591022
2522	0.00527528943370537
2523	0.0242338519566241
2524	0.0277856357064277
2525	0.0441615590130442
2526	0.0388705537220388
2527	0.0545287862119543
2528	0.0632458483943634
2529	0.0641783225941643
2530	0.0685368536853688
2531	0.0750117868929752
2532	0.0757294777096758
2533	0.0945623133741949
2534	0.0960867515322961
2535	0.0912619833411912
2536	0.110435329247211
2537	0.114542406621615
2538	0.113017968463513
2539	0.108193200272408
2540	0.123510922520824
2541	0.125878778354026
2542	0.122578448321022
2543	0.114919587196815
2544	0.107386452931008
2545	0.112336947980512
2546	0.115763004871916
2547	0.103871339514904
2548	0.0985803342238984
2549	0.0996385352820996
2550	0.096678715490597
2551	0.0924459112577927
2552	0.08986327204149
2553	0.089182251558489
2554	0.0932002724081931
2555	0.094258473466394
2556	0.0847346639425846
2557	0.0756770915186755
2558	0.0748703441772749
2559	0.0791398187437795
2560	0.0823144219183825
2561	0.0892555922258893
2562	0.0954790717166956
2563	0.0824034784430825
2564	0.0963748755827962
2565	0.0804128031850806
2566	0.0805385300434807
2567	0.0958562522918958
2568	0.08984755618419
2569	0.0911572109591914
2570	0.0883231180260884
2571	0.102456912357902
2572	0.0900990099009902
2573	0.0884488448844885
2574	0.0733459060191732
2575	0.0804128031850806
2576	0.0796060558436797
2577	0.0872649169678872
2578	0.0887002986012884
2579	0.0892032060348893
2580	0.0908533710513908
2581	0.1002881240505
2582	0.108413222274609
2583	0.099229922992299
2584	0.116664047357117
2585	0.111373042066111
2586	0.114421918382315
2587	0.120771124731521
2588	0.121237361831421
2589	0.113829954424014
2590	0.111587825449212
2591	0.124663418722825
2592	0.123479490806224
2593	0.106045366441406
2594	0.103803237466604
2595	0.111928335690712
2596	0.105919639583006
2597	0.103462727225103
2598	0.0985122321755985
2599	0.0994447063753992
2600	0.0915710618680916
2601	0.0878044947351877
2602	0.0955890827177961
2603	0.104557598617004
2604	0.0932578972182931
2605	0.0681649117292684
2606	0.0533134265807536
2607	0.0424799622819425
2608	0.0402378333071403
2609	0.0308030803080308
2610	0.0231442191838229
2611	0.0226779820839225
2612	0.0236104562837238
2613	0.00913615171040938
2614	0.0125622086018127
2615	0.0158625386348161
2616	0.00680496621090643
2617	-0.00309602388810348
2618	-0.00415422494630424
2619	0.00608727539420606
2620	0.0047776206192045
2621	0.00655351249410674
2622	0.0214049976426216
2623	0.00422232699460445
2624	-0.000261930955000267
2625	0.00714547645240726
2626	-0.0073288281209074
2627	-0.0154539263450155
2628	-0.0176960553198178
2629	-0.0426633139504426
2630	-0.0405469118340405
2631	-0.0476138089999476
2632	-0.0558646340824556
2633	-0.0391482005343391
2634	-0.0433810047671435
2635	-0.0532819948661531
2636	-0.0651736602231654
2637	-0.0812981298129816
2638	-0.0791817276965792
2639	-0.0823563308711825
2640	-0.0814238566713814
2641	-0.0976740531195976
2642	-0.112399811409712
2643	-0.110749646393211
2644	-0.0894232280370895
2645	-0.0774058358216774
2646	-0.0845984598459848
2647	-0.0764733616218765
2648	-0.074948923463775
2649	-0.0670386086227668
2650	-0.0826968411126827
2651	-0.0798627481795799
2652	-0.0689035570223686
2653	-0.0505369584577506
2654	-0.0566713814238564
2655	-0.0591282937817592
2656	-0.055827963748756
2657	-0.0446539892084448
2658	-0.0327623238514327
2659	-0.0405469118340405
2660	-0.0454974068835454
2661	-0.0416051128922417
2662	-0.0437215150086439
2663	-0.0313636125517309
2664	-0.0225208235109222
2665	-0.0179108387029181
2666	-0.0183770758028181
2667	-0.023793807952224
2668	-0.0393263135837394
2669	-0.032133689559432
2670	-0.0314159987427314
2671	-0.0349311121588349
2672	-0.0431819372413433
2673	-0.0240976478600241
2674	-0.0200796270103201
2675	-0.000188590287600432
2676	0.000869610770600771
2677	-0.00348892032060366
2678	-0.00348892032060366
2679	0.00451045104510439
2680	0.013101786369113
2681	0.00815129131960801
2682	0.000366703337000507
2683	0.0092985489025097
2684	0.0068416365446069
2685	0.00307506941170343
2686	0.00895803866100908
2687	0.0221593587930222
2688	0.023217559851223
2689	0.0174603174603174
2690	0.0263031065011261
2691	0.0325632563256324
2692	0.0309130913091309
2693	0.027864214992928
2694	0.0365812771753367
2695	0.0382314421918382
2696	0.0350568390172352
2697	0.0535491644402535
2698	0.0408140814081408
2699	0.0476661951909476
2700	0.0505002881240506
2701	0.0533343810571532
2702	0.0522761799989524
2703	0.0512179789407512
2704	0.0288333595264287
2705	0.0364922206506366
2706	0.0458012467913456
2707	0.0416941694169415
2708	0.0441877521085441
2709	0.0485462831997487
2710	0.0437215150086434
2711	0.0470218450416466
2712	0.0413903295091416
2713	0.0502331185499503
2714	0.0603488920320605
2715	0.0683482633977686
2716	0.0641154591649642
2717	0.071056629472471
2718	0.0737649955471738
2719	0.063057258106763
2720	0.067075278956467
2721	0.059075907590759
2722	0.0521347372832521
2723	0.0432919482424436
2724	0.0583582167740586
2725	0.0682592068730683
2726	0.0541254125412542
2727	0.0729582482057729
2728	0.0724920111058724
2729	0.0829849651631831
2730	0.0942846665618942
2731	0.095128084236995
2732	0.105029074336005
2733	0.10938760542721
2734	0.087846403687988
2735	0.092796898737493
2736	0.104940017811305
2737	0.123898580334224
2738	0.127790874325528
2739	0.12025774005972
2740	0.134732044633035
2741	0.128382838283828
2742	0.128257111425428
2743	0.136130755932736
2744	0.128938131908429
2745	0.117978940751218
2746	0.113960919901514
2747	0.11984388915082
2748	0.112185028026612
2749	0.11937765205092
2750	0.109010424852009
2751	0.118067997275918
2752	0.120650636492221
2753	0.124291476766724
2754	0.11028340929331
2755	0.117942270417518
2756	0.122856095133323
2757	0.133223322332233
2758	0.143250039289643
2759	0.138048090523338
2760	0.128864791241029
2761	0.137581853423438
2762	0.147697626905548
2763	0.137922363664938
2764	0.129116244957829
2765	0.136775106082037
2766	0.121923620933522
2767	0.132290848132432
2768	0.136649379223637
2769	0.14947351878045
2770	0.151123683796951
2771	0.146765152705747
2772	0.140290219498141
2773	0.150997956938551
2774	0.12979726544083
2775	0.132846141757033
2776	0.122138404316622
2777	0.128990518099429
2778	0.135931688406936
2779	0.137456126565038
2780	0.132165121274032
2781	0.126748389124627
2782	0.125223950966525
2783	0.11980721881712
2784	0.12949342553303
2785	0.138550997956939
2786	0.131358373932631
2787	0.126407878883127
2788	0.115322960867515
2789	0.114982450626015
2790	0.109565718476609
2791	0.108722300801509
2792	0.107878883126408
2793	0.1002200220022
2794	0.106102991251506
2795	0.103986589135104
2796	0.108811357326209
2797	0.0965791817276966
2798	0.0932788516946934
2799	0.100471475719
2800	0.102928388076903
2801	0.0924354340195928
2802	0.106694955209807
2803	0.117994656608518
2804	0.119052857666719
2805	0.127052229032427
2806	0.135769291214836
2807	0.127303682749227
2808	0.137419456231337
2809	0.143302425480643
2810	0.138351930431138
2811	0.148970611346849
2812	0.13978731206454
2813	0.137885693331238
2814	0.123159935041123
2815	0.123285661899523
2816	0.108559903609408
2817	0.115375347058516
2818	0.113258944942114
2819	0.112918434700613
2820	0.123626172141024
2821	0.116899785216617
2822	0.118083713133218
2823	0.127141285557127
2824	0.123966682382524
2825	0.125616847399025
2826	0.117957986274818
2827	0.134674419822935
2828	0.122190790507622
2829	0.125957357640526
2830	0.11935669757452
2831	0.125024883440725
2832	0.119016187333019
2833	0.121598826549322
2834	0.121473099690922
2835	0.130656398973231
2836	0.122871810990623
2837	0.11969720781602
2838	0.117203625124417
2839	0.123678558332024
2840	0.132055110272932
2841	0.126297867882027
2842	0.124647702865525
2843	0.127948032898528
2844	0.124558646340825
2845	0.13056734244853
2846	0.124092409240924
2847	0.126800775315627
2848	0.127052229032427
2849	0.138351930431138
2850	0.125616847399025
2851	0.131159306406831
2852	0.125742574257426
2853	0.113850908900414
2854	0.116307821258317
2855	0.112415527267012
2856	0.115841584158416
2857	0.122442244224422
2858	0.114657656241815
2859	0.107339305359107
2860	0.108056996175808
2861	0.11994866153282
2862	0.11004767143381
2863	0.106873068259207
2864	0.125491120540626
2865	0.130656398973231
2866	0.120881135732621
2867	0.130782125831631
2868	0.126297867882027
2869	0.127356068940228
2870	0.130782125831631
2871	0.12959819791503
2872	0.134763476347635
2873	0.134637749489235
2874	0.125920687306826
2875	0.136036460788936
2876	0.145345486929645
2877	0.157111425428257
2878	0.152375713761852
2879	0.15025931164545
2880	0.15025931164545
2881	0.148483419770548
2882	0.145900780554246
2883	0.15013358478705
2884	0.151317512703651
2885	0.139048666771439
2886	0.146241290795746
2887	0.139551574205039
2888	0.13989208444654
2889	0.127659908848028
2890	0.115176279532715
2891	0.110692021583111
2892	0.117758918749018
2893	0.121776939598722
2894	0.122117449840222
2895	0.112127403216512
2896	0.112934150557913
2897	0.122835140656923
2898	0.131892713080832
2899	0.123427104615224
2900	0.106584944208707
2901	0.101293938917701
2902	0.113903295091414
2903	0.106584944208707
2904	0.0963434438681963
2905	0.0989260830844991
2906	0.104594268950704
2907	0.0919849127769921
2908	0.0835193043113838
2909	0.0901199643773902
2910	0.0806852113782806
2911	0.0802189742783803
2912	0.0843260516527844
2913	0.1007019749594
2914	0.105652470008905
2915	0.110943475299911
2916	0.102226413117502
2917	0.106459217350307
2918	0.106710671067107
2919	0.111283985541411
2920	0.123049924040023
2921	0.127282728272827
2922	0.123049924040023
2923	0.124574362198125
2924	0.117507465032218
2925	0.114673372099115
2926	0.102189742783803
2927	0.0908900413850908
2928	0.0866572371522867
2929	0.0840745979359843
2930	0.0865315102938864
2931	0.0731154067787734
2932	0.0643983445963641
2933	0.0713395149038714
2934	0.068845932212269
2935	0.062156215621562
2936	0.0702813138456704
2937	0.0747655717952749
2938	0.0579234113887579
2939	0.064183561213264
2940	0.0624076693383622
2941	0.0552150453140552
2942	0.0547488082141547
2943	0.0639321074964638
2944	0.0657970558960659
2945	0.0685054219707684
2946	0.0694378961705693
2947	0.0728639530619728
2948	0.0707475509455706
2949	0.07002986012887
2950	0.0633401435381631
2951	0.0787835926449789
2952	0.0774739378699776
2953	0.080774267902981
2954	0.0952485724762953
2955	0.08961705694379
2956	0.101042485200901
2957	0.107983655508408
2958	0.0950337890931952
2959	0.100450521242601
2960	0.108916129708209
2961	0.115050552674315
2962	0.11974959400702
2963	0.131641259364031
2964	0.120682068206821
2965	0.118062758656818
2966	0.105112892241605
2967	0.0956781392424957
2968	0.085096128660485
2969	0.0887369689349886
2970	0.0902614070930903
2971	0.0774005972025775
2972	0.068934988736969
2973	0.0672848237204673
2974	0.0702446435119701
2975	0.0663523495206664
2976	0.0610613442296608
2977	0.0496359159725497
2978	0.0436272198648435
2979	0.0454031117397455
2980	0.0425690188066425
2981	0.0351616113992355
2982	0.0336371732411338
2983	0.0398606527319398
2984	0.0247943842003244
2985	0.032919482424433
2986	0.0350358845408352
2987	0.0256011315417255
2988	0.0412593640316412
2989	0.0372780135156374
2990	0.050568390172351
2991	0.0536172664885537
2992	0.0674105505788674
2993	0.0636439834459637
2994	0.0647021845041649
2995	0.0627115092461625
2996	0.0636439834459637
2997	0.0625857823877629
2998	0.0536172664885537
2999	0.0414741474147413
3000	0.0418146576562417
3001	0.0603069830792604
3002	0.0514641940384515
3003	0.0508722300801507
3004	0.0501545392634499
3005	0.0545130703546541
3006	0.0566294724710563
3007	0.0631044056786634
3008	0.0656870448949656
3009	0.0802504059929803
3010	0.0649326837445652
3011	0.0649326837445652
3012	0.0640002095447643
3013	0.0443239562051445
3014	0.0276965791817276
3015	0.0167373880245167
3016	0.011069202158311
3017	0.0177589187490179
3018	0.0223689035570225
3019	0.021184975640421
3020	0.02012677458222
3021	0.0134003876578135
3022	0.00421708837550439
3023	0.00256692335900266
3024	0.0130598774163133
3025	0.018010372465818
3026	0.0196605374823198
3027	0.0194090837655196
3028	0.031892713080832
3029	0.0307087851642307
3030	0.0283409293310284
3031	0.0102257844832103
3032	0.0278746922311279
3033	0.0200901042485202
3034	0.0123055162659125
3035	0.01006338729111
3036	0.0114620985908114
3037	0.00321127350830319
3038	0.00295981979150284
3039	0.014008067473414
3040	-0.00118392791660127
3041	-0.00355178374980358
3042	-0.00591963958300579
3043	-0.0106186809157105
3044	-0.0142595211902141
3045	-0.0162868667819163
3046	-0.0215778720729216
3047	-0.022044109172822
3048	-0.0147624286238147
3049	-0.035837393263136
3050	-0.0374875582796376
3051	-0.027963748755828
3052	-0.0387972130546389
3053	-0.0267798208392269
3054	-0.0291476766724291
3055	-0.0247891455812248
3056	-0.0272827282728272
3057	-0.0355335533553356
3058	-0.0388338833883388
3059	-0.0358740635968359
3060	-0.0483576929121483
3061	-0.0527162240033527
3062	-0.0701503483681704
3063	-0.0809838126669811
3064	-0.0988841741316989
3065	-0.0867410550578867
3066	-0.0837812352663838
3067	-0.0827230342081828
3068	-0.0651998533186652
3069	-0.0567342448530567
3070	-0.063083451202263
3071	-0.063083451202263
3072	-0.065074126460265
3073	-0.0607155953690608
3074	-0.056016554036356
3075	-0.0525014406202524
3076	-0.0431924144795431
3077	-0.0423856671381423
3078	-0.0441615590130443
3079	-0.0349782597307349
3080	-0.0375608989470376
3081	-0.0343862957724342
3082	-0.03002776468123
3083	-0.0254544502069254
3084	-0.0296872544397295
3085	-0.0167373880245166
3086	-0.0210959191157212
3087	-0.026046414165226
3088	-0.029095290481429
3089	-0.0472471056629472
3090	-0.0488972706794488
3091	-0.0516056367541515
3092	-0.0517313636125518
3093	-0.0581172402954581
3094	-0.0659018282780659
3095	-0.073094452302373
3096	-0.0735606894022734
3097	-0.0628529519618628
3098	-0.0675519932945675
3099	-0.0577767300539579
3100	-0.0410602965058411
3101	-0.0431766986222432
3102	-0.0413117502226412
3103	-0.0282361569490281
3104	-0.0353030541149353
3105	-0.0315364869820316
3106	-0.0356802346901357
3107	-0.041096966839541
3108	-0.0443972968725443
3109	-0.0416889307978415
3110	-0.0358950180732359
3111	-0.0306040127822305
3112	-0.0176541463670176
3113	-0.0237885693331238
3114	-0.0128293781759128
3115	-0.00940332128450949
3116	0.00320603488920324
3117	-0.00326889831840338
3118	3.1431714599961e-05
3119	-0.00940332128450949
3120	-0.00847084708470858
3121	-0.0116454502593116
3122	-0.0137618523757138
3123	-0.00703546545130695
3124	0.00532243700560531
3125	0.00858609670490851
3126	-0.00364607889360358
3127	0.000712452197600855
3128	0.00777934936350777
3129	0.0135365917544136
3130	0.00880088008800883
3131	0.0115092461627115
3132	0.0247996228194248
3133	0.0204410917282206
3134	0.0230237309445229
3135	0.0206925454450206
3136	0.0256430404945257
3137	0.0099848080046101
3138	0.00905233380480908
3139	0.00198543663890205
3140	0.0126931740793127
3141	0.0173922154120174
3142	0.0212845094033212
3143	0.0175179422704174
3144	0.0256430404945257
3145	0.0163340143538163
3146	0.0235266383781236
3147	0.0278851694693278
3148	0.0315260097438316
3149	0.0331761747603332
3150	0.0437581853423439
3151	0.0413903295091413
3152	0.045031169783645
3153	0.0433810047671433
3154	0.0332285609513332
3155	0.0306459217350307
3156	0.0219288595526219
3157	0.0176960553198178
3158	0.0234532977107235
3159	0.0251034627272251
3160	0.0206192047776206
3161	0.0185028026612185
3162	0.0249777358688251
3163	0.0401697312588403
3164	0.0477028655246476
3165	0.0557022368903557
3166	0.0611189690397611
3167	0.0665357011891666
3168	0.0686521033055687
3169	0.0696212478390696
3170	0.0663209178060664
3171	0.0703389386557702
3172	0.0752894337052752
3173	0.0746974697469747
3174	0.0678453559641679
3175	0.0614961496149614
3176	0.0682225365393682
3177	0.0579810361988581
3178	0.0600083817905599
3179	0.0601341086489601
3180	0.0601341086489601
3181	0.0515427733249515
3182	0.0647440934569647
3183	0.0634344386819635
3184	0.0667347687149668
3185	0.0728691916810729
3186	0.073927392739274
3187	0.0691026245481691
3188	0.0693540782649693
3189	0.0716852637644717
3190	0.085944784954686
3191	0.0912357902456913
3192	0.0940698831787941
3193	0.104096600136204
3194	0.104814290952905
3195	0.109172822044109
3196	0.115558698727016
3197	0.10955000261931
3198	0.102949342553303
3199	0.111540677877311
3200	0.11048247681911
3201	0.104599507569805
3202	0.11001623971921
3203	0.106123945727906
3204	0.1001152496202
3205	0.103881816753104
3206	0.101765414636702
3207	0.111200167635811
3208	0.109083765519409
3209	0.107899837602808
3210	0.101550631253602
3211	0.105317198386505
3212	0.111451621352611
3213	0.107218817119807
3214	0.113227513227513
3215	0.118644245376919
3216	0.116527843260517
3217	0.114159987427314
3218	0.114285714285714
3219	0.115595369060716
3220	0.125030122059825
3221	0.128330452092829
3222	0.125030122059825
3223	0.132222746084132
3224	0.115846822777516
3225	0.109497616428309
3226	0.112797946461313
3227	0.126806013934727
3228	0.117496987794018
3229	0.112205982503012
3230	0.103399863795903
3231	0.112708889936613
3232	0.111865472261512
3233	0.104117554612604
3234	0.103525590654304
3235	0.107292157787207
3236	0.114359054953114
3237	0.112834616795013
3238	0.119435276861019
3239	0.0995442401382997
3240	0.0990780030383992
3241	0.0975535648802975
3242	0.0975535648802975
3243	0.103096023888103
3244	0.113929488186914
3245	0.116045890303316
3246	0.125103462727225
3247	0.124511498768925
3248	0.114861962386715
3249	0.113929488186914
3250	0.118879983236419
3251	0.13009062811043
3252	0.12949866415213
3253	0.127974225994028
3254	0.128566189952329
3255	0.146466551417046
3256	0.144816386400545
3257	0.141641783225942
3258	0.141767510084342
3259	0.140835035884541
3260	0.141301272984441
3261	0.13977683482634
3262	0.152852428099953
3263	0.131651736602232
3264	0.137534705851538
3265	0.125894494211326
3266	0.121195452878621
3267	0.121069726020221
3268	0.108586096704909
3269	0.116119230970716
3270	0.0997433076640998
3271	0.0905600083817906
3272	0.0829011472575829
3273	0.0755827963748756
3274	0.0778249253496781
3275	0.0904342815233905
3276	0.10951857090471
3277	0.0936088846979937
3278	0.0984336528890983
3279	0.104190895280004
3280	0.12044109172822
3281	0.10948190057101
3282	0.120655875111321
3283	0.104279951804704
3284	0.108638482895909
3285	0.103221750746503
3286	0.100513384671801
3287	0.101231075488501
3288	0.111346848970611
3289	0.116763581120017
3290	0.109356173712609
3291	0.0989889465136992
3292	0.107114044737807
3293	0.10982241081251
3294	0.115453926345016
3295	0.111095395253811
3296	0.109319503378909
3297	0.113678034470114
3298	0.116260673686416
3299	0.113552307611714
3300	0.109534286762009
3301	0.100476714338101
3302	0.0962439101052964
3303	0.0907014510974905
3304	0.0829535334485829
3305	0.0776625281575777
3306	0.0790612394572788
3307	0.0796532034155797
3308	0.0692859762166692
3309	0.073052543349573
3310	0.0709361412331709
3311	0.0741107444077741
3312	0.0638692440672639
3313	0.0492692126355495
3314	0.059044475876159
3315	0.057986274817958
3316	0.0460946094609461
3317	0.0502016868353502
3318	0.0532872334852533
3319	0.0556550893184555
3320	0.0472785373775473
3321	0.02997013987113
3322	0.025145371680025
3323	0.0289119388129288
3324	0.021001623971921
3325	0.0205353868720206
3326	0.022059825030122
3327	0.0248939179632249
3328	0.0116925978312117
3329	0.00674210278170673
3330	0.00991670595631
3331	0.0164806956886164
3332	0.0173241133637174
3333	0.0144009639059144
3334	0.0397087327780398
3335	0.0387762585782389
3336	0.0366598564618366
3337	0.0371260935617372
3338	0.0453769186442454
3339	0.0464351197024465
3340	0.0717428885745718
3341	0.0673843574833675
3342	0.0653936822253653
3343	0.0573943108596575
3344	0.0577348211011578
3345	0.0543087642097542
3346	0.0568914034260569
3347	0.0613756613756613
3348	0.0538425271098538
3349	0.065734192466866
3350	0.0743255277908744
3351	0.0705589606579706
3352	0.0726753627743727
3353	0.0716171617161716
3354	0.0803342238985804
3355	0.0772853475823774
3356	0.0653936822253653
3357	0.0622190790507622
3358	0.0665776101419667
3359	0.0728010896327728
3360	0.0819843889150819
3361	0.0832940436900832
3362	0.0881188118811882
3363	0.0896432500392895
3364	0.0926921263554925
3365	0.087993085022788
3366	0.0917596521556916
3367	0.0898580334223901
3368	0.0813924249567816
3369	0.0749174917491748
3370	0.0691602493582691
3371	0.0771596207239773
3372	0.0829168631148829
3373	0.0937503274136937
3374	0.0956519461469957
3375	0.101660642254702
3376	0.0971763843050971
3377	0.0845670281313846
3378	0.0869348839645868
3379	0.0897689768976897
3380	0.0898947037560901
3381	0.0751689454659751
3382	0.0788097857404788
3383	0.0708104143747709
3384	0.0828278065901829
3385	0.0801194405154798
3386	0.0784692754989783
3387	0.0749174917491748
3388	0.0669181203834669
3389	0.0634030069673636
3390	0.0595107129760596
3391	0.0542197076850545
3392	0.063994970925664
3393	0.0548116716433547
3394	0.0506679239352507
3395	0.0483367384357484
3396	0.0585782387762587
3397	0.0532872334852533
3398	0.0444444444444444
3399	0.0375032741369374
3400	0.039027712295039
3401	0.039027712295039
3402	0.0427942794279427
3403	0.0437267536277437
3404	0.0432605165278431
3405	0.0532505631515531
3406	0.0601917334590603
3407	0.0461836659856462
3408	0.0383990780030383
3409	0.0341662737702342
3410	0.0356907119283357
3411	0.0343810571533344
3412	0.0304887631620306
3413	0.0248205772958249
3414	0.0230446854209231
3415	0.00666876211430667
3416	0.0125517313636125
3417	0.0167845355964167
3418	0.0153858242967154
3419	0.00654303525590649
3420	0.0237257059039236
3421	0.0238514327623239
3422	0.0237257059039236
3423	0.0213578500707213
3424	0.0288909843365288
3425	0.0317250772696316
3426	0.0317250772696316
3427	0.0290167111949289
3428	0.0218240871706218
3429	0.0277070564199278
3430	0.0290167111949289
3431	0.01995913877102
3432	0.0161925716381163
3433	0.0132327518466132
3434	0.0260568914034262
3435	0.0102729320551102
3436	0.00849704018020836
3437	0.0143800094295143
3438	0.0112054062549113
3439	0.00930378752160932
3440	0.0123526638378125
3441	0.0101105348630101
3442	0.0138771019959139
3443	0.00985908114620992
3444	0.00643302425480641
3445	0.015024359578815
3446	0.0151500864372152
3447	0.00397611189690394
3448	-0.00215831106920206
3449	0.0103253182461103
3450	-0.00144062025250147
3451	-0.0151081774844152
3452	-0.0319503378909319
3453	-0.0425690188066425
3454	-0.0332599926659334
3455	-0.0306773534496306
3456	-0.0336371732411337
3457	-0.016077322017916
3458	-0.00807795065220807
3459	-0.0195033789093196
3460	-0.0297448792498297
3461	-0.0383362145738382
3462	-0.0363455393158363
3463	-0.0375294672324374
3464	-0.0364712661742365
3465	-0.0357535753575358
3466	-0.0408297972654409
3467	-0.0305882969249305
3468	-0.031054534024831
3469	-0.0218712347425218
3470	-0.0105715333438107
3471	-0.00892136832730905
3472	-0.015988265493216
3473	-0.0124364817434126
3474	-0.0206873068259207
3475	-0.0255120750170255
3476	-0.0228037089423229
3477	-0.0228037089423229
3478	-0.0136204096600137
3479	-0.00951333228560947
3480	-0.0192885955262193
3481	-0.0293153124836293
3482	-0.0287233485253289
3483	-0.0270731835088273
3484	-0.0310912043585311
3485	-0.0322751322751322
3486	-0.039001519199539
3487	-0.0388757923411389
3488	-0.0399339933993399
3489	-0.0259259259259259
3490	-0.0261773796427262
3491	-0.0134422966106135
3492	-0.00497668814500496
3493	-0.02004295667662
3494	-0.0255854156844257
3495	-0.0319346220336321
3496	-0.0304101838755305
3497	-0.048059091623448
3498	-0.0459426895070458
3499	-0.0399339933993399
3500	-0.0395934831578395
3501	-0.0587668290638588
3502	-0.0654565456545655
3503	-0.0707475509455707
3504	-0.0683796951123684
3505	-0.0676620042956677
3506	-0.0642359474042642
3507	-0.0754099219445754
3508	-0.0683430247786685
3509	-0.0719838650531721
3510	-0.066100895803866
3511	-0.0834092933102834
3512	-0.0744407774110744
3513	-0.0679658442034679
3514	-0.0672481533867673
3515	-0.063947823353764
3516	-0.0517156477552518
3517	-0.053957776730054
3518	-0.0425323484729425
3519	-0.0289905180994289
3520	-0.0360574152653361
3521	-0.0474828435224476
3522	-0.0318246110325318
3523	-0.0225155848918225
3524	-0.0198072188171199
3525	-0.024040023049924
3526	-0.019089528000419
3527	-0.0264969354078264
3528	-0.0292053014825293
3529	-0.0263712085494264
3530	-0.0306040127822305
3531	-0.0313217035989315
3532	-0.0266226622662268
3533	-0.0281471004243282
3534	-0.028021373565928
3535	-0.0373303997066373
3536	-0.0405050028812404
3537	-0.0344963067735345
3538	-0.0381371470480381
3539	-0.0304782859238306
3540	-0.0314107601236313
3541	-0.0254020640159254
3542	-0.0159673110168159
3543	-0.024899156582325
3544	-0.0232489915658233
3545	-0.0281994866153282
3546	-0.0361988579810362
3547	-0.0324322908481324
3548	-0.025024883440725
3549	-0.0274817957986274
3550	-0.0417413169888418
3551	-0.0417413169888418
3552	-0.0394991880140394
3553	-0.0215988265493217
3554	-0.0139399654251141
3555	-0.0272670124155271
3556	-0.0344596364398344
3557	-0.01994866153282
3558	-0.0298496516318298
3559	-0.0390329509141391
3560	-0.0325580177065325
3561	-0.0283252134737282
3562	-0.0138509089004138
3563	-0.0298496516318298
3564	-0.02007438839122
3565	-0.0324322908481324
3566	-0.0226570276075228
3567	-0.0339567290062339
3568	-0.0379747498559381
3569	-0.0325580177065325
3570	-0.0486824872963486
3571	-0.0444496830635445
3572	-0.0488082141547487
3573	-0.0456336109801455
3574	-0.0511760699879512
3575	-0.0594268950704595
3576	-0.0557860547959559
3577	-0.0614542406621613
3578	-0.0640368798784641
3579	-0.0699198491277698
3580	-0.0669600293362669
3581	-0.0631934622033632
3582	-0.0538844360626538
3583	-0.055068363979255
3584	-0.0532924721043533
3585	-0.0536329823458535
3586	-0.064932683744565
3587	-0.0644664466446645
3588	-0.0601079155534602
3589	-0.0622243176698623
3590	-0.0736497459269737
3591	-0.0708156529938708
3592	-0.0824925349677824
3593	-0.0834250091675833
3594	-0.0703494158939703
3595	-0.0642149929278641
3596	-0.0637487558279638
3597	-0.074922730368275
3598	-0.0682330137775682
3599	-0.0521085441877521
3600	-0.0532924721043533
3601	-0.0530410183875528
3602	-0.0303158887317303
3603	-0.0163078212583163
3604	-0.0158415841584159
3605	-0.0120750170255122
3606	0.00218450416470228
3607	0.00912567447220902
3608	0.0238514327623239
3609	0.0227932317041228
3610	0.0337524228613338
3611	0.0449263974016449
3612	0.0595264288333596
3613	0.0424694850437425
3614	0.035062077636335
3615	0.043061449002043
3616	0.0410707737440411
3617	0.0403897532610406
3618	0.0273141599874273
3619	0.0142385667138143
3620	0.0201215359631201
3621	0.0104719995809105
3622	0.0121221645974122
3623	-0.00412803185080401
3624	-0.00188590287600165
3625	-0.00188590287600165
3626	-0.000827701817800675
3627	-0.00023573785950004
3628	0.0103462727225103
3629	0.0205877730630207
3630	0.00928807166430934
3631	0.00788936036460797
3632	0.0167321494054169
3633	0.0141495101891141
3634	0.0236733197129237
3635	0.0251977578710252
3636	0.018974278380219
3637	0.0276913405626278
3638	0.0273508303211273
3639	0.0132170359893132
3640	0.00991670595631
3641	0.00543244800670539
3642	-0.00434281523390434
3643	-0.0150872230080149
3644	-0.0108544187752108
3645	-0.0126303106501126
3646	-0.00992194457540996
3647	-0.0152129498664152
3648	-0.0200377180575199
3649	-0.0203782282990204
3650	-0.0185132798994184
3651	-0.0182618261826183
3652	-0.00941903714180936
3653	-0.00929331028340918
3654	-0.0154277332495155
3655	-0.0176698622243177
3656	-0.0241447954319242
3657	-0.0166116611661167
3658	-0.0248624862486249
3659	-0.0302792183980302
3660	-0.0345120226308344
3661	-0.0333280947142333
3662	-0.0409869558384409
3663	-0.0507622190790509
3664	-0.0296872544397295
3665	-0.0250772696317251
3666	-0.0187280632825187
3667	-0.0224946304154224
3668	-0.0191943003824192
3669	-0.0261354706899261
3670	-0.0202525014406203
3671	-0.0134370579915133
3672	-0.0252029964901253
3673	-0.0296872544397295
3674	-0.0313374194562311
3675	-0.0296872544397295
3676	-0.0236785583320237
3677	-0.0196605374823198
3678	-0.0163602074493164
3679	-0.00810938236680814
3680	-0.00400230499240395
3681	-0.0125936403164125
3682	-0.0197862643407197
3683	-0.0208444653989208
3684	-0.0211849756404212
3685	-0.0261354706899261
3686	-0.0276599088480278
3687	-0.0184766095657185
3688	-0.0204672848237204
3689	-0.0275341819896276
3690	-0.016234480590916
3691	-0.0153020063911153
3692	-0.0214364293572213
3693	-0.0191943003824192
3694	-0.0224946304154224
3695	-0.0277856357064277
3696	-0.024019068573524
3697	-0.03002776468123
3698	-0.0215621562156216
3699	-0.0175441353659176
3700	-0.0297763109644299
3701	-0.0237676148567239
3702	-0.0172926816491172
3703	-0.0237676148567239
3704	-0.0287181099062288
3705	-0.0211849756404212
3706	-0.0178846456074178
3707	-0.027911362564828
3708	-0.0393367908219393
3709	-0.045811724029546
3710	-0.0479281261459481
3711	-0.0448792498297449
3712	-0.0426371208549426
3713	-0.0421708837550422
3714	-0.0312483629315313
3715	-0.0270155586987271
3716	-0.0351406569228351
3717	-0.0298496516318298
3718	-0.0460998480800461
3719	-0.0405573890722404
3720	-0.0420818272303419
3721	-0.0509246162711507
3722	-0.0411493530305412
3723	-0.0519828173293518
3724	-0.0465660851799465
3725	-0.048090523338048
3726	-0.0571480957619571
3727	-0.0523233275708523
3728	-0.0604484257949603
3729	-0.0544397296872544
3730	-0.062098590811462
3731	-0.0605741526533606
3732	-0.0677667766776677
3733	-0.0648069568861649
3734	-0.0679815600607681
3735	-0.0619728639530619
3736	-0.0544397296872544
3737	-0.0451307035465451
3738	-0.0580805699617581
3739	-0.0604484257949603
3740	-0.0499554717376499
3741	-0.0505474356959504
3742	-0.0483053067211483
3743	-0.0493635077793494
3744	-0.0464036879878464
3745	-0.0480538530043481
3746	-0.0413274660799413
3747	-0.0450940332128449
3748	-0.0420451568966421
3749	-0.032018439939232
3750	-0.0288438367646289
3751	-0.0293100738645294
3752	-0.0296872544397295
3753	-0.0367541516056368
3754	-0.0181360993242181
3755	-0.00446854209230441
3756	0.00250929854890247
3757	0.00982764943160974
3758	-0.00147205196710143
3759	-0.00312221698360304
3760	-0.00477238200010477
3761	-0.00312221698360304
3762	-0.0073550212164073
3763	-0.00688878411650684
3764	-0.00477238200010477
3765	-0.0137408978993137
3766	-0.0268164911729267
3767	-0.0329142438053329
3768	-0.0387972130546389
3769	-0.0386714861962386
3770	-0.0302058777306301
3771	-0.0317303158887318
3772	-0.0304206611137304
3773	-0.0299544240138301
3774	-0.0212373618314212
3775	-0.0167531038818167
3776	-0.0218293257897219
3777	-0.0288962229556291
3778	-0.0278380218974279
3779	-0.033003300330033
3780	-0.0380795222379381
3781	-0.0521766462360522
3782	-0.0474776049033475
3783	-0.03994447063754
3784	-0.0415946356540418
3785	-0.0349049190633349
3786	-0.0386714861962386
3787	-0.041971816229242
3788	-0.0294881869139295
3789	-0.0273717847975273
3790	-0.0331290271884332
3791	-0.0320708261302322
3792	-0.0265283671224266
3793	-0.0238200010477239
3794	-0.0242862381476243
3795	-0.0311016815967311
3796	-0.0341872282466343
3797	-0.0498454607365499
3798	-0.0405364345958406
3799	-0.0447692388286449
3800	-0.0394782335376396
3801	-0.0373618314212374
3802	-0.0431190738121432
3803	-0.0433705275289434
3804	-0.0374875582796376
3805	-0.0269055476976269
3806	-0.0329142438053329
3807	-0.0423489968044425
3808	-0.0411650688878411
3809	-0.0410393420294409
3810	-0.0266907643145265
3811	-0.0184399392320184
3812	-0.0219550526481219
3813	-0.0254701660642255
3814	-0.0226360731311227
3815	-0.0196762533396196
3816	-0.0173083975064172
3817	-0.0169678872649169
3818	-0.0200534339148201
3819	-0.000717690816700811
3820	-0.00105820105820098
3821	0.0037665671329038
3822	0.00283409293310277
3823	-0.00317460317460316
3824	0.00283409293310277
3825	-0.00211640211640218
3826	-0.00566818586620566
3827	0.000932474199800915
3828	-0.0135418303735136
3829	-0.00270836607470271
3830	-0.00694117030750707
3831	-0.0115144847818114
3832	-0.00114725758290102
3833	0.0145109749070143
3834	0.00495049504950495
3835	0.00520194876630531
3836	0.0107444077741108
3837	0.00202734559170215
3838	-0.0046990413327046
3839	0.00283409293310277
3840	-0.0105820105820105
3841	-0.0134161035151136
3842	-0.0135418303735136
3843	-0.0103672271989105
3844	-0.00846560846560851
3845	-0.0046990413327046
3846	-0.000340510241500391
3847	-0.00105820105820098
3848	0.00118392791660127
3849	-0.00550578867410545
3850	-0.0151553250563152
3851	-0.0264550264550265
3852	-0.0282309183299284
3853	-0.0184556550893185
3854	-0.00808842789040809
3855	-0.0255225522552255
3856	-0.0444811147781444
3857	-0.0468489706113467
3858	-0.0512075017025513
3859	-0.0501493006443501
3860	-0.042024202420242
3861	-0.0462570066530463
3862	-0.044858295353345
3863	-0.0495573366860496
3864	-0.037880454712138
3865	-0.0421132589449421
3866	-0.038095238095238
3867	-0.0362302896956364
3868	-0.0413065116035413
3869	-0.0314055215045316
3870	-0.023998114097124
3871	-0.0333071402378333
3872	-0.0373251610875373
3873	-0.0433338571952434
3874	-0.04015925402064
3875	-0.0341505579129341
3876	-0.0469746974697469
3877	-0.0465084603698466
3878	-0.03990780030384
3879	-0.0496830635444497
3880	-0.0594583267850595
3881	-0.060982764943161
3882	-0.0644088218345645
3883	-0.0632248939179634
3884	-0.0625072031012626
3885	-0.0632248939179634
3886	-0.0733406674000734
3887	-0.0712242652836714
3888	-0.0754570695164756
3889	-0.0868824977735869
3890	-0.0826496935407826
3891	-0.0778249253496779
3892	-0.082057729582482
3893	-0.0782911624495782
3894	-0.0835821677405836
3895	-0.0837078945989838
3896	-0.0743098119335743
3897	-0.0823091832992823
3898	-0.0786683430247785
3899	-0.0916182094399917
3900	-0.0943265755146945
3901	-0.0920844465398922
3902	-0.0922101733982923
3903	-0.0928021373565927
3904	-0.0959767405311961
3905	-0.0965687044894965
3906	-0.111975483262612
3907	-0.111975483262612
3908	-0.114091885379014
3909	-0.114809576195715
3910	-0.115527267012415
3911	-0.131185499502331
3912	-0.13956205144324
3913	-0.143454345434543
3914	-0.151364660275551
3915	-0.161606160616062
3916	-0.15995599559956
3917	-0.169265021740269
3918	-0.162072397715962
3919	-0.157965320341558
3920	-0.151616113992352
3921	-0.147634763476348
3922	-0.144460160301744
3923	-0.146325108701346
3924	-0.143150505526743
3925	-0.145392634501545
3926	-0.139258211535439
3927	-0.148190057100948
3928	-0.143831526009744
3929	-0.138074283618838
3930	-0.138666247577139
3931	-0.140567866310441
3932	-0.135276861019435
3933	-0.142935722143643
3934	-0.140693593168841
3935	-0.141411283985541
3936	-0.136712242652837
3937	-0.148478181151449
3938	-0.153177222484153
3939	-0.155885588558856
3940	-0.153769186442454
3941	-0.141537010843942
3942	-0.136460788936036
3943	-0.127366546178427
3944	-0.14031641259364
3945	-0.145392634501545
3946	-0.156226098800356
3947	-0.162234794908062
3948	-0.16011839279166
3949	-0.157876263816858
3950	-0.156137042275656
3951	-0.142846665618943
3952	-0.130488763162031
3953	-0.121179737021321
3954	-0.124946304154225
3955	-0.138954371627639
3956	-0.141196500602441
3957	-0.142846665618943
3958	-0.150846036984651
3959	-0.143312902718843
3960	-0.139294881869139
3961	-0.138828644769239
3962	-0.137429933469538
3963	-0.131421237361831
3964	-0.126596469170727
3965	-0.120802556446121
3966	-0.12977107234533
3967	-0.132013201320132
3968	-0.127062706270627
3969	-0.114704803813715
3970	-0.124480067054324
3971	-0.134721567394835
3972	-0.130829273403531
3973	-0.134470113678034
3974	-0.134936350777935
3975	-0.13032636596993
3976	-0.145644088218346
3977	-0.126345015453926
3978	-0.118434700612918
3979	-0.114668133480015
3980	-0.113861386138614
3981	-0.105395777673005
3982	-0.103871339514904
3983	-0.0932893289328933
3984	-0.100948190057101
3985	-0.0976478600240975
3986	-0.084912776991985
3987	-0.0767876787678767
3988	-0.0787783540258788
3989	-0.0725548745350725
3990	-0.0752632406097751
3991	-0.0725548745350725
3992	-0.0753889674681755
3993	-0.0824558646340824
3994	-0.0824558646340824
3995	-0.0824558646340824
3996	-0.0803394625176803
3997	-0.0773796427261773
3998	-0.0697207816019698
3999	-0.0631201215359631
4000	-0.0464036879878464
4001	-0.0392110639635392
4002	-0.057111425428257
4003	-0.0618104667609618
4004	-0.0577033893865577
4005	-0.0446277961129448
4006	-0.054869296453455
4007	-0.0598197915029599
4008	-0.0640525957357642
4009	-0.0521609303787521
4010	-0.0596940646445596
4011	-0.0496673476871496
4012	-0.0436586515794436
4013	-0.0430666876211431
4014	-0.0415422494630414
4015	-0.0379904657132379
4016	-0.0324480067054325
4017	-0.0283409293310282
4018	-0.0164492639740164
4019	-0.0230499240400229
4020	-0.0326994604222327
4021	-0.0348158625386348
4022	-0.04010686782964
4023	-0.041882759704542
4024	-0.047084708470847
4025	-0.0388338833883388
4026	-0.0410760123631411
4027	-0.0476766724291475
4028	-0.0363769710304365
4029	-0.0353187699722354
4030	-0.0370946618471371
4031	-0.0431033579548431
4032	-0.046869925087747
4033	-0.0448792498297449
4034	-0.0497040180208497
4035	-0.0516056367541515
4036	-0.0533815286290534
4037	-0.0566818586620567
4038	-0.0512651265126514
4039	-0.0444496830635445
4040	-0.0443239562051443
4041	-0.0472837759966471
4042	-0.0532924721043533
4043	-0.0501178689297501
4044	-0.0647179003614647
4045	-0.0585834773953585
4046	-0.0556236576038556
4047	-0.0388705537220388
4048	-0.0355702236890354
4049	-0.0336686049557338
4050	-0.0353187699722354
4051	-0.0303682749227304
4052	-0.0365026978888364
4053	-0.0449683063544449
4054	-0.0502593116454502
4055	-0.0609670490858608
4056	-0.0568599717114568
4057	-0.0596940646445596
4058	-0.0443763423961443
4059	-0.0396773010634397
4060	-0.0532191314369533
4061	-0.0553355335533554
4062	-0.0521609303787521
4063	-0.0568599717114568
4064	-0.057111425428257
4065	-0.0637120854942635
4066	-0.0696317250772697
4067	-0.0609146628948609
4068	-0.0564304049452563
4069	-0.051946146995652
4070	-0.0584210802032584
4071	-0.0564304049452563
4072	-0.0596050081198595
4073	-0.0650217402692651
4074	-0.0629053381528629
4075	-0.0596050081198595
4076	-0.0590130441615591
4077	-0.0555869872701557
4078	-0.0614699565194615
4079	-0.0584210802032584
4080	-0.0626538844360626
4081	-0.0620619204777619
4082	-0.0593535544030593
4083	-0.056053224370056
4084	-0.0692178741683692
4085	-0.0694326575514693
4086	-0.0781497197338782
4087	-0.0858085808580858
4088	-0.0902928388076902
4089	-0.0945256430404945
4090	-0.0975745193566976
4091	-0.100874849389701
4092	-0.109466184713709
4093	-0.0980407564565979
4094	-0.0924982974487926
4095	-0.104856199905705
4096	-0.090848132432291
4097	-0.0847137094661845
4098	-0.069055476976269
4099	-0.0553879197443552
4100	-0.0597464508355599
4101	-0.0603384147938604
4102	-0.0737545183089737
4103	-0.0635130179684635
4104	-0.0617371260935615
4105	-0.0633872911100632
4106	-0.0668133480014668
4107	-0.0544554455445545
4108	-0.0345644088218345
4109	-0.0313898056472314
4110	-0.0387972130546389
4111	-0.0418460893708418
4112	-0.0503116978364502
4113	-0.0545445020692545
4114	-0.0527686101943529
4115	-0.0455759861700455
4116	-0.0506522080779507
4117	-0.0566609041856565
4118	-0.0554403059353554
4119	-0.059081146209859
4120	-0.0534129603436533
4121	-0.0483367384357486
4122	-0.0376290009953377
4123	-0.0413955681282413
4124	-0.0498611765938498
4125	-0.0353868720205353
4126	-0.0483367384357486
4127	-0.0466865734192469
4128	-0.0358531091204357
4129	-0.0472785373775474
4130	-0.0316203048876316
4131	-0.0276022840379275
4132	-0.0101681596731102
4133	-0.00733406674000725
4134	-0.0222746084132222
4135	-0.00945046885640943
4136	-0.0168578762638167
4137	-0.00683115930640654
4138	-0.00788936036460774
4139	0.00107915553460103
4140	0.000146681334800114
4141	0.0106396353921105
4142	-0.00383466918120368
4143	-0.00688354549740677
4144	-0.0117083136885117
4145	0.00454188275970413
4146	0.0157158573000158
4147	0.0083975064173083
4148	-0.00492954057310491
4149	-0.000571009481900475
4150	0.000953428676200962
4151	0.00531195976740517
4152	-0.00175493739850152
4153	-0.00374561265650364
4154	0.00167111949290155
4155	-0.0032793755566034
4156	0.00721357850070725
4157	0.00543768662580568
4158	0.00708785164230741
4159	-0.00788936036460774
4160	-0.0181308607051183
4161	-0.00742312326470729
4162	-0.0100057624810097
4163	-0.0131803656556131
4164	0.0055267431505055
4165	0.00260359369270269
4166	-0.00319031903190314
4167	0.00260359369270269
4168	0.0083975064173083
4169	0.01004767143381
4170	0.01004767143381
4171	0.00382419194300376
4172	0.0135103986589136
4173	0.0195190947666197
4174	0.0297605951071296
4175	0.0353030541149355
4176	0.0316622138404317
4177	0.0306040127822307
4178	0.0343705799151346
4179	0.0328461417570329
4180	0.0243805332914244
4181	0.0293310283409294
4182	0.0360574152653359
4183	0.0425323484729425
4184	0.0410079103148411
4185	0.0565404159463563
4186	0.0667819162868668
4187	0.0720729215778724
4188	0.0657237152286658
4189	0.0664414060453666
4190	0.0842160406516841
4191	0.0883597883597882
4192	0.0931845565508933
4193	0.0968253968253969
4194	0.0948347215673948
4195	0.0895437162763895
4196	0.0986012887002985
4197	0.0775263240609776
4198	0.0662266226622661
4199	0.0592854523547597
4200	0.0548011944051552
4201	0.0586934883964587
4202	0.0615275813295617
4203	0.0738854837864737
4204	0.0705851537534705
4205	0.0803604169940804
4206	0.0905128608098904
4207	0.0853475823772851
4208	0.0812405050028813
4209	0.0834826339776837
4210	0.0764157368117768
4211	0.0775996647283776
4212	0.0803080308030804
4213	0.0836083608360836
4214	0.0848813452773849
4215	0.0806485410445807
4216	0.0665147467127667
4217	0.073958824453874
4218	0.0715909686206713
4219	0.0660485096128658
4220	0.0648645816962652
4221	0.0722719891036723
4222	0.0819215254858821
4223	0.0795903399863798
4224	0.0832311802608829
4225	0.0850070721357852
4226	0.0824244329194825
4227	0.0912305516265914
4228	0.0836607470270838
4229	0.0874273141599875
4230	0.0954266855256956
4231	0.0824768191104825
4232	0.0996961600921997
4233	0.091822515584892
4234	0.0903871339514903
4235	0.102745036408403
4236	0.101938289067002
4237	0.102404526166902
4238	0.0994813767090996
4239	0.108413222274609
4240	0.106296820158206
4241	0.112771753365813
4242	0.116878830740217
4243	0.113112263607313
4244	0.118995232856619
4245	0.122761799989523
4246	0.104269474566504
4247	0.094027974225994
4248	0.0875530410183876
4249	0.0988527424170988
4250	0.0943684844674944
4251	0.0967363403006969
4252	0.0962701032007962
4253	0.105579129341506
4254	0.103085546649903
4255	0.0996594897584997
4256	0.101775891874902
4257	0.109309026140709
4258	0.121200691497721
4259	0.118869505998219
4260	0.117937031798418
4261	0.122044109172822
4262	0.127460841322228
4263	0.12991775368013
4264	0.126868877363927
4265	0.126187856880926
4266	0.135837393263136
4267	0.150563151553251
4268	0.144213945204044
4269	0.136340300696737
4270	0.140950285504741
4271	0.144124888679344
4272	0.133039970663733
4273	0.126905547697627
4274	0.135496883021636
4275	0.127963748755828
4276	0.117130284457017
4277	0.122080779506522
4278	0.122547016606422
4279	0.134223898580334
4280	0.130797841688931
4281	0.14057310492954
4282	0.147640002095448
4283	0.147173764995547
4284	0.146707527895647
4285	0.153433914820053
4286	0.142851904238043
4287	0.138959610246739
4288	0.145937450887946
4289	0.148179579862748
4290	0.153004348053853
4291	0.152071873854052
4292	0.140986955838441
4293	0.133579548431034
4294	0.127822306040128
4295	0.131122636073131
4296	0.137597569280738
4297	0.136073131122636
4298	0.148467703913249
4299	0.157991513437058
4300	0.155623657603856
4301	0.152197600712452
4302	0.151139399654251
4303	0.151265126512651
4304	0.156089894703756
4305	0.162564827911363
4306	0.155372203887055
4307	0.157829116244958
4308	0.149112054062549
4309	0.158421080203258
4310	0.14982974487925
4311	0.154780239928755
4312	0.155964167845356
4313	0.162905338152863
4314	0.154188275970454
4315	0.16997223531877
4316	0.179155534601079
4317	0.186222431766986
4318	0.185845251191786
4319	0.171837183718372
4320	0.166886688668867
4321	0.168877363926869
4322	0.152878621195453
4323	0.157237152286657
4324	0.145560270312745
4325	0.138404316622139
4326	0.155461260411756
4327	0.144753522971345
4328	0.147839069621248
4329	0.134422966106134
4330	0.127481795798628
4331	0.124307192624024
4332	0.118424223374719
4333	0.106066320917806
4334	0.104075645659804
4335	0.11012101210121
4336	0.109062811043009
4337	0.104112315993504
4338	0.0992875478023991
4339	0.0926868877363927
4340	0.0772801089632773
4341	0.0720781601969724
4342	0.0731363612551732
4343	0.0576038556236576
4344	0.0765624181465767
4345	0.0749122531300752
4346	0.0736025983550734
4347	0.0870553722038869
4348	0.103897532610404
4349	0.117905600083818
4350	0.116506888784117
4351	0.115322960867515
4352	0.109188537901409
4353	0.108345120226308
4354	0.105296243910105
4355	0.11037246581801
4356	0.114730996909215
4357	0.107449316360207
4358	0.0969563623028968
4359	0.0894232280370892
4360	0.102965058410603
4361	0.107664099743308
4362	0.114856723767615
4363	0.108381790560009
4364	0.106265388443606
4365	0.105332914243805
4366	0.0962753418198963
4367	0.0874325527790876
4368	0.0818900937712819
4369	0.0828225679710828
4370	0.0729215778720731
4371	0.0720781601969724
4372	0.0547697626905548
4373	0.059128293781759
4374	0.0612446958981612
4375	0.0494787573995497
4376	0.056886164806957
4377	0.0621771700979625
4378	0.0612080255644611
4379	0.0617999895227614
4380	0.0543925821153544
4381	0.0596835874063595
4382	0.0526166902404526
4383	0.0409398082665409
4384	0.0445806485410447
4385	0.0412803185080415
4386	0.0312536015506311
4387	0.0412436481743412
4388	0.041835612132642
4389	0.0402745036408403
4390	0.0304992404002304
4391	0.03003300330033
4392	0.0219969616009223
4393	0.0364712661742366
4394	0.0396458693488395
4395	0.0432867096233436
4396	0.0259783121169259
4397	0.0383362145738384
4398	0.0419770548483418
4399	0.0449002043061448
4400	0.0517523180889519
4401	0.0622452721462621
4402	0.0734559170202733
4403	0.067195767195767
4404	0.0604693802713607
4405	0.0495101891141496
4406	0.0487034417727488
4407	0.0622452721462621
4408	0.0473047304730472
4409	0.0620304887631622
4410	0.0608465608465607
4411	0.061564251663262
4412	0.0528471894808527
4413	0.056021792655456
4414	0.0648645816962652
4415	0.0820472523442819
4416	0.0680391848708681
4417	0.0679134580124681
4418	0.0718057520037716
4419	0.0641468908795642
4420	0.085096128660485
4421	0.0866205668185867
4422	0.0827282728272827
4423	0.0867096233432867
4424	0.0797684530357798
4425	0.0874273141599875
4426	0.0882340615013881
4427	0.085777149143486
4428	0.0820105820105819
4429	0.0750694117030752
4430	0.0897951699931896
4431	0.0792131594111789
4432	0.085096128660485
4433	0.0882707318350884
4434	0.0916967887264915
4435	0.102745036408403
4436	0.0906019173345907
4437	0.0860286028602859
4438	0.0892032060348893
4439	0.0947456650426945
4440	0.1000366703337
4441	0.115102938865315
4442	0.121703598931322
4443	0.106171093299807
4444	0.12030488763162
4445	0.110781078107811
4446	0.125255382681125
4447	0.113489444182513
4448	0.111928335690712
4449	0.0977945413588976
4450	0.0907276441929907
4451	0.0954266855256956
4452	0.100843417675101
4453	0.101309654775001
4454	0.105793912724606
4455	0.10977526324061
4456	0.109560479857509
4457	0.108628005657708
4458	0.11980198019802
4459	0.128644769238829
4460	0.135711666404736
4461	0.126654093980826
4462	0.138671486196239
4463	0.133254754046833
4464	0.125003928964325
4465	0.124411965006024
4466	0.126402640264027
4467	0.13038399078003
4468	0.132159882654932
4469	0.132285609513332
4470	0.130886898213631
4471	0.137236104562837
4472	0.142652836712243
4473	0.156660904185657
4474	0.156283723610456
4475	0.161826182618262
4476	0.156283723610456
4477	0.158059615485358
4478	0.163476347634764
4479	0.166310440567866
4480	0.181842946199382
4481	0.182183456440882
4482	0.183493111215883
4483	0.189250353606789
4484	0.184299858557284
4485	0.172748703441773
4486	0.177018178008277
4487	0.171135208758971
4488	0.167620095342867
4489	0.165844203467966
4490	0.150777934936351
4491	0.159243543401959
4492	0.156535177327257
4493	0.16021268793546
4494	0.15031169783645
4495	0.14971973387815
4496	0.14971973387815
4497	0.161019435276861
4498	0.153612027869453
4499	0.148195295720048
4500	0.137953795379538
4501	0.125936403164126
4502	0.11015244381581
4503	0.0921263554926923
4504	0.0925035360678925
4505	0.104861438524805
4506	0.0989784692754989
4507	0.103211273508303
4508	0.0913196081512915
4509	0.0928440463093927
4510	0.0777777777777775
4511	0.0708366074702711
4512	0.069312169312169
4513	0.067195767195767
4514	0.0614018544711616
4515	0.068253968253968
4516	0.0578867410550576
4517	0.0567028131384566
4518	0.0487034417727488
4519	0.0455288385981458
4520	0.0456545654565457
4521	0.0416732149405417
4522	0.0412069778406414
4523	0.0374404107077373
4524	0.0489915658232489
4525	0.0511079679396513
4526	0.0524176227146522
4527	0.0456021792655457
4528	0.0467861071821472
4529	0.0357378595002358
4530	0.0280789983760281
4531	0.0163130598774162
4532	0.0238461941432235
4533	0.0211378280685208
4534	0.0221960291267218
4535	0.0130127298444129
4536	0.00205353868720226
4537	0.0039551574205039
4538	0.0103043637697104
4539	0.0122059825030121
4540	0.0186809157106185
4541	0.0166902404526166
4542	-0.00908376551940937
4543	-0.0267326732673268
4544	-0.0246162711509246
4545	-0.0296924930588298
4546	-0.0368851170831368
4547	-0.0444182513489442
4548	-0.0354864057834356
4549	-0.0437005605322438
4550	-0.0266069464089269
4551	-0.0231808895175232
4552	-0.0311802608832312
4553	-0.0443449106815443
4554	-0.0496359159725497
4555	-0.0603436534129607
4556	-0.0730420661113731
4557	-0.0845932212268843
4558	-0.0924668657341925
4559	-0.096914453350097
4560	-0.106815443449107
4561	-0.103174603174603
4562	-0.0895070459426897
4563	-0.102582639216302
4564	-0.0974173607836974
4565	-0.0896327728010897
4566	-0.0845565508931847
4567	-0.0738488134527739
4568	-0.0803237466603806
4569	-0.0863324427680865
4570	-0.07973178270208
4571	-0.0798575095604799
4572	-0.0706742102781703
4573	-0.07973178270208
4574	-0.0794803289852792
4575	-0.0846456074178847
4576	-0.087945937450888
4577	-0.08003562260988
4578	-0.0885012310754887
4579	-0.104751427523705
4580	-0.105683901723506
4581	-0.112499345172612
4582	-0.114023783330714
4583	-0.0992980250405993
4584	-0.100696736340301
4585	-0.0972706794488976
4586	-0.0917282204410919
4587	-0.0950285504740951
4588	-0.0939336790821941
4589	-0.0899523285661898
4590	-0.0958352978154957
4591	-0.0905442925244908
4592	-0.094185132798994
4593	-0.0965529886321963
4594	-0.106328251872806
4595	-0.102902194981403
4596	-0.107134999214207
4597	-0.113358478705013
4598	-0.11005814867201
4599	-0.109340457855309
4600	-0.106040127822306
4601	-0.109340457855309
4602	-0.107564565980407
4603	-0.0930902614070928
4604	-0.0939336790821941
4605	-0.0966420451568968
4606	-0.0998166483314999
4607	-0.0928754780239929
4608	-0.0921577872072918
4609	-0.0981664833149982
4610	-0.0883912200743884
4611	-0.0828487610665829
4612	-0.0796741578919797
4613	-0.0893603646078895
4614	-0.0973597359735976
4615	-0.0848394363245848
4616	-0.0894494211325894
4617	-0.0947404264235945
4618	-0.0935564985069934
4619	-0.0917806066320919
4620	-0.100874849389701
4621	-0.094274189323694
4622	-0.0946146995651946
4623	-0.0862381476242864
4624	-0.0838702917910839
4625	-0.0760857038084761
4626	-0.0647860024097648
4627	-0.0594949971187595
4628	-0.0353711561632353
4629	-0.0383309759547383
4630	-0.0184399392320183
4631	-0.0152653360574153
4632	0.0124102886479125
4633	0.0186337681387188
4634	0.016983603122217
4635	0.0154591649641154
4636	0.0173241133637174
4637	0.0181675310388181
4638	0.0179160773220179
4639	0.0207501702551207
4640	0.014149510189114
4641	0.00179160773220177
4642	0.00284980879040297
4643	0.0257897218293257
4644	0.0263816857876265
4645	0.0269736497459272
4646	0.0276913405626278
4647	0.0399601864948402
4648	0.0509193776520509
4649	0.0433862433862433
4650	0.0542197076850544
4651	0.037126093561737
4652	0.0305254334957306
4653	0.0374666038032372
4654	0.0463984493687466
4655	0.057231913667557
4656	0.0620566818586623
4657	0.0817329351982816
4658	0.0874901775891874
4659	0.0959557860547959
4660	0.102896956362303
4661	0.109157106186809
4662	0.102090209020902
4663	0.094897584996595
4664	0.103148410079103
4665	0.0909162344805912
4666	0.0948085284718949
4667	0.103399863795903
4668	0.0963329666299964
4669	0.0905757242390905
4670	0.1003509874797
4671	0.0990413327046991
4672	0.0913824715804914
4673	0.0884593221226886
4674	0.0963329666299964
4675	0.0964586934883966
4676	0.0999738069045
4677	0.104458064854104
4678	0.105856776153806
4679	0.116690240452617
4680	0.11999057048562
4681	0.118680915710619
4682	0.111614018544712
4683	0.104887631620305
4684	0.0955786054795955
4685	0.0889779454135888
4686	0.0782702079731781
4687	0.0745036408402744
4688	0.0641364136413642
4689	0.0695164754570696
4690	0.067992037298968
4691	0.0743412436481745
4692	0.0734087694483734
4693	0.0730682592068732
4694	0.0737859500235738
4695	0.0889779454135888
4696	0.0943946775629942
4697	0.0867358164387866
4698	0.0850856514222849
4699	0.0852113782806851
4700	0.094017496987794
4701	0.0976950075959975
4702	0.094986641521295
4703	0.105568652103306
4704	0.10992718319451
4705	0.108277018178008
4706	0.112509822410813
4707	0.106626853161507
4708	0.104636177903505
4709	0.112169312169312
4710	0.0984126984126983
4711	0.0979464613127978
4712	0.0967625333961966
4713	0.103237466603803
4714	0.101964482162502
4715	0.115380585677616
4716	0.0971030436376972
4717	0.0861438524804858
4718	0.0704856199905706
4719	0.0778039708732778
4720	0.0888522185551888
4721	0.1004033736707
4722	0.1000261930955
4723	0.0980355178374983
4724	0.0810676305725813
4725	0.0808161768557809
4726	0.0588977945413587
4727	0.0378228299020378
4728	0.0242809995285242
4729	0.0122636073131122
4730	0.00354654513070374
4731	-0.00056053224370034
4732	0.0122636073131122
4733	-0.000471475719000747
4734	-0.0116454502593117
4735	-0.00563675415160581
4736	-0.000220022002199949
4737	0.0036722719891038
4738	0.00354654513070374
4739	-0.00470427995180489
4740	-0.0103724658180104
4741	-0.013798522709414
4742	0.00185970978050198
4743	0.00609251401330613
4744	0.00575200377180551
4745	0.00524909633820525
4746	0.00914139032950922
4747	0.0106658284876107
4748	0.000979621771701078
4749	-0.0145528838598146
4750	-0.0195033789093193
4751	-0.0360050290743361
4752	-0.0277542039918277
4753	-0.0270365131751267
4754	-0.0421027817067421
4755	-0.043752946723244
4756	-0.04976164283095
4757	-0.0324532453245321
4758	-0.0511970244643511
4759	-0.0641468908795642
4760	-0.0787469223112787
4761	-0.0865315102938866
4762	-0.0873749279689875
4763	-0.101382995442401
4764	-0.0983341191261984
4765	-0.0919849127769923
4766	-0.0779768453035781
4767	-0.0818691392948818
4768	-0.0904604746188906
4769	-0.0989260830844991
4770	-0.0915186756770918
4771	-0.0993032636596995
4772	-0.111535439258211
4773	-0.104002304992404
4774	-0.110854418775211
4775	-0.11038818167531
4776	-0.113814238566714
4777	-0.108738016658809
4778	-0.112038346691812
4779	-0.122746084132223
4780	-0.13040494525643
4781	-0.129006233956729
4782	-0.137131332180837
4783	-0.137723296139138
4784	-0.145974121221646
4785	-0.162224317669862
4786	-0.160574152653361
4787	-0.161291843470061
4788	-0.158117240295458
4789	-0.146943265755147
4790	-0.152359997904552
4791	-0.156252291895856
4792	-0.152951961862853
4793	-0.159086384828959
4794	-0.154513070354654
4795	-0.145796008172246
4796	-0.147320446330347
4797	-0.142836188380743
4798	-0.133060925140133
4799	-0.125187280632825
4800	-0.131070249882131
4801	-0.136953219131437
4802	-0.134622033631934
4803	-0.128272827282728
4804	-0.138262873906438
4805	-0.151804704279952
4806	-0.149688302163549
4807	-0.155105034312955
4808	-0.137670909948138
4809	-0.132254177798732
4810	-0.146979936088847
4811	-0.11955576510032
4812	-0.132505631515532
4813	-0.122730368274923
4814	-0.131787940698832
4815	-0.122264131175022
4816	-0.127214626224527
4817	-0.117905600083818
4818	-0.11955576510032
4819	-0.103305568652103
4820	-0.100974383152601
4821	-0.112148357692912
4822	-0.118031326942218
4823	-0.108596573943109
4824	-0.113206558751113
4825	-0.0987322541777986
4826	-0.112022630834512
4827	-0.107072135785007
4828	-0.104023259468804
4829	-0.100974383152601
4830	-0.102965058410603
4831	-0.104023259468804
4832	-0.106516842160407
4833	-0.104740950285505
4834	-0.116040651684216
4835	-0.114175703284614
4836	-0.116292105401016
4837	-0.123484729425324
4838	-0.11984388915082
4839	-0.108758971135209
4840	-0.100508146052701
4841	-0.092849284928493
4842	-0.0824820577295824
4843	-0.0862486248624863
4844	-0.0933155220283934
4845	-0.0927235580700929
4846	-0.0718633768138723
4847	-0.0795222379380796
4848	-0.0785897637382786
4849	-0.0772801089632773
4850	-0.0692807375975693
4851	-0.0606894022735605
4852	-0.0426633139504426
4853	-0.0435957881502436
4854	-0.0411388757923414
4855	-0.032081303368432
4856	-0.0197234009115195
4857	-0.0159568337786158
4858	-0.0233642411860233
4859	-0.0125307768872127
4860	-0.00487191576300505
4861	0.0126512651265125
4862	0.0179422704175178
4863	0.00452616690240437
4864	0.0267850594583268
4865	0.00926187856880945
4866	-0.00580438996280597
4867	-0.0103777044371105
4868	-0.00237833307140223
4869	-0.0101629210540104
4870	-0.00508669914610493
4871	-0.00720310126250712
4872	-0.00779506522080764
4873	0.0111634973021111
4874	0.00951333228560958
4875	0.0141233170936144
4876	0.0140342605689139
4877	0.00286028602860267
4878	-0.00467284823720471
4879	-0.00856514222850846
4880	-0.0176227146524175
4881	-0.0163497302111164
4882	-0.00797317827020794
4883	-0.000440044004400564
4884	0.0120435853109122
4885	0.0107706008696109
4886	0.0124207658861124
4887	0.0187699722353187
4888	0.031845565508932
4889	0.0226622662266225
4890	0.0214783383100217
4891	0.0161873330190161
4892	0.0287966891927287
4893	0.0270574676515272
4894	0.0374246948504378
4895	0.0397925506836398
4896	0.0252815757766254
4897	0.0263397768348266
4898	0.0129236733197129
4899	0.01999057048562
4900	0.00268217297920259
4901	-0.0052281418618052
4902	-0.00133584787050145
4903	-0.00167635811200162
4904	0.0044580648541046
4905	0.0053905390539053
4906	0.00657446697050679
4907	0.00987479700351024
4908	0.0175336581277177
4909	0.00987479700351024
4910	0.00374037403740357
4911	0.00797317827020771
4912	-0.0105191471528103
4913	-0.00217926554560188
4914	-0.00759599769500774
4915	-0.00442139452040458
4916	-0.000529100529100379
4917	0.00666352349520682
4918	0.0116140185447116
4919	0.0425899732830424
4920	0.0382314421918382
4921	0.0231651736602234
4922	0.0322227460841324
4923	0.0235056839017238
4924	0.0202053538687204
4925	0.0227879930850226
4926	0.0303211273508301
4927	0.035020168683535
4928	0.033961967625334
4929	0.0384462255749389
4930	0.0416574990832419
4931	0.0437739011996439
4932	0.0448321022578448
4933	0.0526166902404526
4934	0.0321336895594322
4935	0.0434333909581435
4936	0.0480433757661478
4937	0.0562942008486562
4938	0.0487610665828486
4939	0.0586620566818585
4940	0.0543035255906543
4941	0.0434700612918435
4942	0.0413536591754411
4943	0.0392372570590389
4944	0.0336947980512339
4945	0.0443134789669444
4946	0.0345382157263348
4947	0.025946880402326
4948	0.0509141390329511
4949	0.0465556079417464
4950	0.0504112315993506
4951	0.0461784273665464
4952	0.0484205563413487
4953	0.0427523704751427
4954	0.0433076640997436
4955	0.0422494630415424
4956	0.0383571690502384
4957	0.0296401068678298
4958	0.0463565404159463
4959	0.0322227460841324
4960	0.03001728744303
4961	0.0274346482267276
4962	0.0206192047776206
4963	0.0169783645031172
4964	0.0357221436429358
4965	0.0271308083189272
4966	0.0343234323432342
4967	0.0376237623762374
4968	0.0373723086594373
4969	0.0267902980774268
4970	0.033265231285033
4971	0.0433810047671435
4972	0.0465556079417464
4973	0.0483314998166484
4974	0.0293729372937295
4975	0.0279742259940279
4976	0.0246738959610246
4977	0.0232385143276232
4978	0.0328880507098328
4979	0.0408874220755409
4980	0.0473623552831475
4981	0.0708051757556711
4982	0.0653884436062657
4983	0.0606894022735607
4984	0.0603488920320605
4985	0.0495154277332497
4986	0.0725810676305727
4987	0.0867148619623868
4988	0.095091413903295
4989	0.0958091047199956
4990	0.110660589868511
4991	0.103719419561004
4992	0.114427157001415
4993	0.100885326627901
4994	0.102158311069202
4995	0.0980512336947981
4996	0.0828592383047828
4997	0.0846351301796846
4998	0.074859866939075
4999	0.0872177693959872
5000	0.076043794855676
5001	0.0961862852951962
5002	0.101262507203101
5003	0.0999528524281001
5004	0.0998271255696996
5005	0.104059929802504
5006	0.111718790926712
